timestamp,emg1,emg2,emg3,emg4,emg5,emg6,emg7,emg8
1606411586421328,7,110,-5,-63,-21,37,27,-31
1606411586421328,-8,-40,2,40,16,-5,-31,12
1606411586422326,3,-75,-8,-21,20,-20,-7,17
1606411586422326,14,9,-2,1,-11,-4,30,-2
1606411586422326,0,71,21,47,4,25,9,-23
1606411586422326,-6,-11,-15,-72,-14,-9,-31,-3
1606411586426316,6,-53,-8,-24,12,-13,-4,12
1606411586426316,-2,-10,3,56,9,-10,-33,-1
1606411586433296,8,72,7,-5,-20,33,84,-4
1606411586433296,-9,-7,3,-17,-15,-4,6,-7
1606411586445265,-1,-52,0,18,-2,-31,-76,6
1606411586445265,12,-9,-3,-11,-6,-4,24,7
1606411586456235,-7,57,0,7,-14,29,8,-6
1606411586456235,6,-11,-1,26,15,-4,-17,8
1606411586465212,13,-47,2,45,14,-5,0,6
1606411586465212,7,19,-1,-38,-8,-6,-30,-18
1606411586473190,-10,32,-10,-9,-3,1,-40,-12
1606411586473190,8,-15,-2,-67,7,9,57,18
1606411586488152,44,-18,-7,-12,-4,-9,-5,-5
1606411586488152,-48,6,1,9,2,13,31,11
1606411586493138,9,10,8,38,5,-6,-48,-15
1606411586493138,-23,-18,-11,-58,-9,-3,31,4
1606411586542008,-1,69,-2,-35,1,33,48,0
1606411586542008,-9,-61,-4,39,11,-16,-27,1
1606411586543005,3,-44,2,-13,7,-19,-47,0
1606411586543005,-1,12,1,-15,-8,-2,0,6
1606411586544004,-4,66,4,-9,-8,21,41,-14
1606411586544004,-9,-18,0,1,1,-1,-10,6
1606411586547080,18,-43,-10,11,6,-9,-2,-3
1606411586547080,-5,-8,6,-29,-1,-5,-7,6
1606411586552977,6,53,5,21,-10,10,-2,-12
1606411586552977,-4,-1,-23,-35,-7,1,-13,6
1606411586561954,-9,-42,19,42,-1,-16,-8,4
1606411586561954,1,15,-3,-3,2,1,9,-13
1606411586567937,-1,34,3,17,-5,11,-1,-10
1606411586567937,3,-16,0,-22,3,-7,9,7
1606411586584893,-13,-21,-13,21,0,-8,-4,6
1606411586584893,8,17,-3,4,1,6,8,-4
1606411586590876,-8,14,-13,-30,-8,0,-10,-7
1606411586590876,0,-16,9,-5,0,-5,-13,2
1606411586605836,0,-6,1,-2,1,-3,9,8
1606411586605836,0,12,9,11,0,-1,8,-9
1606411586613815,0,-1,-11,-17,0,6,-14,-6
1606411586613815,1,-10,-1,41,10,-4,5,2
1606411586628776,3,9,8,-92,-11,-3,9,4
1606411586628776,0,6,-7,13,14,7,-2,-4
1606411586629773,-2,-12,16,-4,-7,-6,-12,-3
1606411586629773,4,8,-6,-60,14,7,6,6
1606411586651714,-6,5,-5,-17,1,0,5,2
1606411586651714,-2,-5,-9,19,-3,-4,-1,-4
1606411586652712,1,-3,2,5,-6,-1,1,1
1606411586652712,0,-8,12,42,-3,2,5,-2
1606411586673655,0,1,-7,-30,-5,-7,1,-1
1606411586673655,0,15,0,-3,-2,11,-1,0
1606411586674654,2,-18,-19,27,8,4,-1,0
1606411586674654,-1,4,27,5,-4,-3,-2,2
1606411586690610,2,7,-13,4,1,1,5,-4
1606411586690610,-6,-8,-18,-17,-13,-4,-5,-5
1606411586691608,-1,-9,7,38,8,-9,-4,0
1606411586691608,0,-4,-1,-12,-7,-10,-1,0
1606411586711554,-2,3,-28,31,9,14,4,-3
1606411586711554,10,10,23,-6,-2,5,2,-4
1606411586712552,0,-19,-20,-17,-3,-8,-2,4
1606411586712552,-3,8,-3,-25,-6,-5,-6,-7
1606411586734495,28,9,-3,46,-1,5,27,10
1606411586734495,-4,12,5,2,3,2,-10,-2
1606411586734495,4,-20,-5,14,-1,-15,-13,3
1606411586734495,2,18,15,-15,-9,-1,11,-2
1606411586749452,-11,-4,-12,-9,3,8,-8,-6
1606411586749452,-2,0,-8,28,2,-2,4,2
1606411586749452,5,-11,26,0,-1,-7,6,2
1606411586749452,-2,-6,-40,-2,-11,-1,-5,-2
1606411586771394,-5,2,2,8,0,3,-7,-6
1606411586771394,1,8,19,-15,-6,-9,3,0
1606411586772392,-7,-15,-18,-12,4,-4,-7,3
1606411586772392,0,-8,-7,8,-1,0,1,-3
1606411586794394,-7,2,6,-20,2,1,-7,-9
1606411586794394,0,-9,17,16,-6,-6,-21,1
1606411586795330,2,0,1,-13,-1,5,29,8
1606411586795330,-5,14,40,-4,2,-2,-12,-2
1606411586809291,2,4,-31,1,-7,-6,-2,-2
1606411586809291,-5,-4,38,11,8,-1,-13,-3
1606411586810290,-3,-16,34,34,-3,-3,-12,1
1606411586810290,4,16,-6,-68,-6,5,12,0
1606411586831236,-6,11,25,64,1,0,-4,-8
1606411586831236,-2,-12,-19,-11,-3,-4,1,2
1606411586832230,-3,-11,-9,24,7,-5,-4,1
1606411586832230,0,2,1,-15,4,3,8,-3
1606411586854174,-4,6,24,42,6,3,-2,1
1606411586854174,-1,-7,-21,-21,-7,7,13,0
1606411586855172,3,-5,3,-26,-1,-4,-10,-3
1606411586855172,9,-7,-18,11,5,-1,-2,1
1606411586869131,8,10,0,-11,-11,-3,3,-1
1606411586869131,-1,-2,-2,38,6,4,6,0
1606411586870129,6,-13,-10,-35,2,-7,-7,5
1606411586870129,-3,-2,0,22,-7,1,0,-4
1606411586891073,-3,3,-2,-22,-1,2,-2,-1
1606411586891073,-8,-6,-6,-6,1,-3,7,-3
1606411586892071,0,-2,-8,-11,-7,-4,-20,0
1606411586892071,-10,1,-8,4,3,-1,6,3
1606411586914012,-4,3,10,5,-6,3,2,-4
1606411586914012,1,-3,-18,-32,-6,-1,4,0
1606411586915009,-12,-9,7,25,9,-5,-2,-5
1606411586915009,56,0,-6,9,-8,-1,5,4
1606411586927974,-36,7,-2,-27,-3,0,10,-8
1606411586927974,-5,-19,-5,1,3,1,-10,3
1606411586935953,-29,6,-7,-12,0,-8,-11,0
1606411586935953,28,1,2,18,0,-3,-3,-8
1606411586952907,-11,-1,6,-16,-1,2,5,-5
1606411586952907,-3,7,-8,-3,0,-1,4,-1
1606411586953905,-13,-29,-3,2,0,0,2,7
1606411586953905,-17,6,6,10,0,-2,-10,-2
1606411586973852,10,19,0,-11,-1,0,-2,4
1606411586973852,-6,9,-2,2,-1,0,9,0
1606411586974849,1,-9,-1,-4,-3,-5,-7,-3
1606411586974849,-35,-22,-2,2,2,0,2,-5
1606411586988811,10,5,-5,-8,-1,-2,-1,4
1606411586988811,14,-9,0,0,-2,-5,-7,-2
1606411586995793,15,-4,0,-3,-1,-1,-2,-2
1606411586995793,-14,-12,-3,2,1,2,4,-4
1606411587012748,17,19,2,-5,-2,3,-2,6
1606411587012748,2,-7,-6,-4,-5,-4,-8,2
1606411587013745,-7,10,0,-17,-7,0,15,-1
1606411587013745,-10,4,-4,19,4,0,-3,-2
1606411587033691,-1,-3,-1,-2,-1,2,0,-1
1606411587033691,1,-1,-3,-3,0,-2,-4,-1
1606411587034689,-3,-11,-3,-2,0,-2,-1,-3
1606411587034689,3,3,-3,-2,-4,-1,-7,-4
1606411587048652,-12,0,7,-4,-2,1,13,-2
1606411587048652,-1,-8,-24,-6,-1,-3,-7,-5
1606411587055633,8,1,12,9,3,-3,0,-1
1606411587055633,-15,-1,-6,8,4,0,-4,-1
1606411587079569,19,2,4,-13,-8,-1,-8,5
1606411587079569,-16,-13,-1,-1,2,0,2,1
1606411587080567,0,-7,-5,-1,-1,-4,-3,-1
1606411587080567,-10,-4,5,0,0,0,-3,-5
1606411587093532,-7,0,-4,-7,-1,-1,2,-4
1606411587093532,-30,-3,1,3,-3,1,2,-5
1606411587094529,41,20,4,4,2,-3,-6,1
1606411587094529,-13,-10,-2,-3,-2,-1,2,-6
1606411587108492,-5,-6,0,-4,-3,0,-3,0
1606411587108492,3,6,0,-4,-2,0,-3,1
1606411587115473,-23,-10,-4,-10,0,-5,-6,-8
1606411587115473,18,5,-2,13,-2,-3,1,7
1606411587131430,-10,12,-10,-6,0,1,-6,-4
1606411587131430,-60,-2,22,-16,-3,-4,0,-1
1606411587132428,4,-5,-2,25,2,1,-2,0
1606411587132428,6,-3,-6,-13,-1,-1,-2,0
1606411587154369,-12,-11,-4,0,-2,-3,-4,-2
1606411587154369,27,5,2,3,1,1,4,3
1606411587154369,6,-8,-5,-10,-1,-2,-2,9
1606411587154369,-26,3,2,2,0,-2,-2,-9
1606411587170330,31,1,2,3,2,2,1,1
1606411587170330,16,11,-3,-1,-2,0,3,-5
1606411587176310,4,-9,1,-1,0,0,-1,6
1606411587176310,8,2,-5,4,-1,-1,1,3
1606411587191271,-12,-14,-3,-8,-2,-3,0,-4
1606411587191271,10,0,0,4,-2,-1,-2,-1
1606411587199252,-6,-5,-2,1,0,1,-1,2
1606411587199252,4,0,4,-7,-2,0,1,1
1606411587214212,8,3,-4,-2,7,-2,6,-2
1606411587214212,1,4,1,9,-10,-2,-6,-3
1606411587215210,5,-10,0,-3,0,-1,0,-5
1606411587215210,-2,-1,-2,-11,0,-2,1,4
1606411587228172,7,-2,1,4,1,-2,-4,1
1606411587228172,-11,-6,-5,-2,-1,-1,-3,-6
1606411587236153,5,0,-3,-3,-6,-1,-3,-2
1606411587236153,8,5,0,4,-1,1,10,5
1606411587252115,-16,-4,-5,1,-1,-1,-7,-3
1606411587252115,35,3,-1,-2,-1,2,-1,5
1606411587252115,-7,-5,0,4,-2,-4,-2,-3
1606411587252115,-18,-5,-1,-4,-2,-3,-5,-3
1606411587277042,0,0,2,0,-4,-2,-1,0
1606411587277042,0,6,-1,2,4,0,0,1
1606411587278039,-16,-12,-3,-5,-1,0,-1,-1
1606411587278039,14,-2,-3,-2,1,-1,0,1
1606411587283025,0,3,-2,1,0,0,-3,-2
1606411587283025,-4,-4,-4,1,-1,0,1,-2
1606411587295990,4,-1,-4,-6,0,-2,-2,2
1606411587295990,7,-1,0,2,-2,-1,-2,-5
1606411587304967,-20,2,-3,-14,-5,0,3,-1
1606411587304967,-23,-15,-5,-7,2,1,9,-1
1606411587310950,1,4,-1,15,1,0,0,0
1606411587310950,-10,-5,-3,-9,-5,-1,-4,-7
1606411587325911,2,0,0,2,1,0,-1,-9
1606411587325911,-18,8,3,-1,0,-1,-2,-5
1606411587332892,-10,8,3,-7,-5,3,6,-14
1606411587332892,10,6,1,7,3,4,15,16
1606411587342866,-12,6,2,5,3,-1,-14,4
1606411587342866,3,4,-2,-4,-1,5,0,2
1606411587355830,-7,-8,-3,-2,-1,2,-17,-5
1606411587355830,-1,-1,1,0,-4,-5,-9,-9
1606411587364807,0,9,1,-2,-7,-1,5,-6
1606411587364807,14,7,-4,6,1,-2,-8,3
1606411587370790,3,5,2,-4,0,1,1,2
1606411587370790,-5,-5,-2,-6,0,2,-3,-5
1606411587385751,3,-2,-2,10,-3,-1,-3,-13
1606411587385751,-11,2,1,-2,-4,2,-1,-20
1606411587393729,11,4,1,-6,-1,-1,6,37
1606411587393729,-2,2,7,1,-1,-2,3,-1
1606411587402705,1,-3,-35,-12,0,-1,-1,-1
1606411587402705,11,1,2,-7,-2,0,3,-9
1606411587415672,2,2,-1,4,-2,1,3,-12
1606411587415672,-10,3,5,0,0,3,-2,2
1606411587424648,4,-3,1,1,-2,3,3,11
1606411587424648,-24,-1,-7,3,2,4,9,-18
1606411587430631,-8,7,-3,-6,2,-1,-3,20
1606411587430631,13,6,-3,1,-4,-2,-5,4
1606411587445591,6,-9,7,6,1,5,12,-10
1606411587445591,-12,19,1,4,1,-3,-6,4
1606411587453569,4,3,3,-4,-6,-1,-2,-7
1606411587453569,-9,-1,14,15,7,1,10,3
1606411587462545,-2,2,-5,-15,-9,-1,-18,1
1606411587462545,10,1,3,9,0,1,12,-5
1606411587475511,-7,-8,1,1,2,-2,-5,-9
1606411587475511,31,8,-13,-7,-3,-1,-4,-11
1606411587484487,3,1,8,6,1,-1,2,15
1606411587484487,6,1,3,-8,-1,-1,-2,2
1606411587490471,5,-8,6,7,3,-3,1,-11
1606411587490471,-7,2,-12,0,-2,-1,-2,-5
1606411587505430,-4,-6,1,-5,1,0,2,-11
1606411587505430,14,3,-4,-4,0,1,2,18
1606411587513410,0,-9,-2,-5,-7,-3,-1,2
1606411587513410,-8,-4,-1,11,3,-1,-5,-10
1606411587530364,7,19,9,-3,-1,-3,-3,-8
1606411587530364,3,1,0,-5,3,-2,-1,-3
1606411587536348,-1,-8,-14,4,-1,-4,2,-5
1606411587536348,-1,-11,-17,-14,-7,-1,-5,-9
1606411587559287,-5,30,63,12,4,-2,0,19
1606411587559287,11,-3,-10,-11,-6,3,-6,19
1606411587560284,-6,-6,3,-5,1,-2,2,-23
1606411587560284,-7,-5,-9,0,-3,-2,-3,6
1606411587566271,-2,-2,-11,5,2,0,2,-50
1606411587566271,5,11,16,-7,-6,1,-3,41
1606411587581239,3,2,1,-6,-2,1,2,16
1606411587581239,-1,-5,9,8,4,1,0,0
1606411587588212,-5,-15,-25,-18,-6,-1,-1,-14
1606411587588212,0,-1,14,13,3,1,-2,-13
1606411587596192,-8,-14,-38,7,5,1,-1,-6
1606411587596192,-1,4,54,-7,0,-1,-2,6
1606411587611163,5,-3,-16,-5,-1,1,1,15
1606411587611163,0,1,-4,1,0,-3,-3,-10
1606411587612146,-8,-10,-3,-6,3,-3,-2,3
1606411587612146,-2,3,-7,-3,-3,0,0,-9
1606411587626112,2,-4,-8,-3,1,-2,1,12
1606411587626112,3,1,-9,7,1,0,3,-2
1606411587633092,-2,-3,11,-7,-3,-1,-2,-3
1606411587633092,-1,-2,-11,-4,-1,0,-4,0
1606411587648050,0,-3,-6,-23,-4,1,2,0
1606411587648050,0,0,4,10,14,-3,-1,-10
1606411587656031,1,2,12,50,10,-1,3,3
1606411587656031,0,4,-18,-72,-19,-3,4,3
1606411587672985,0,5,22,93,34,9,0,6
1606411587672985,1,-9,-10,-40,-14,-5,0,-5
1606411587673982,-3,-4,8,-29,3,-3,-1,2
1606411587673982,-1,-1,-19,9,-2,2,-1,0
1606411587685951,0,2,-12,-35,-19,-21,0,-2
1606411587685951,0,0,-8,40,4,32,-2,-2
1606411587701906,0,-4,-6,-3,-17,-16,-3,0
1606411587701906,-1,-1,5,14,16,11,3,1
1606411587724847,0,0,0,0,-2,-12,-5,0
1606411587724847,0,-5,-13,-32,-12,1,2,-3
1606411587725846,-1,-8,5,5,4,3,-2,3
1606411587725846,-1,-2,0,3,-6,-13,-3,-1
1606411587731828,-3,3,-14,-42,0,12,-2,-3
1606411587731828,-1,4,25,49,0,-27,1,-1
1606411587732827,-1,-1,-4,-20,-3,-17,-2,0
1606411587732827,-2,2,-6,-13,-1,56,2,-2
1606411587745791,0,-8,7,-16,-4,-7,-2,-1
1606411587745791,-2,-1,-22,-31,-9,-40,-4,-4
1606411587753769,-1,2,24,66,16,38,-1,1
1606411587753769,0,2,-12,-3,2,-36,-4,1
1606411587768727,1,5,1,-13,-1,30,5,3
1606411587768727,-3,-4,1,14,-6,-8,-4,-4
1606411587775711,0,-4,-4,-59,-5,21,0,0
1606411587775711,-3,-5,11,69,11,-24,-4,-1
1606411587792667,1,0,-5,-8,-9,16,2,0
1606411587792667,0,4,0,-15,8,-28,-8,-3
1606411587793677,0,-4,-7,-10,11,28,0,1
1606411587793677,-1,1,3,-9,-3,6,-2,-4
1606411587807624,-1,2,-1,3,-8,-3,2,-3
1606411587807624,0,-1,-3,24,-10,-12,-5,-5
1606411587813609,1,-3,-24,-48,0,-20,2,3
1606411587813609,0,-2,9,-29,-12,54,11,2
1606411587828567,-2,-10,-15,61,10,-93,-16,0
1606411587828567,0,12,11,-23,-3,92,21,2
1606411587835549,-1,-5,-2,7,8,7,-7,-2
1606411587835549,-2,-1,-9,9,-3,-29,-2,0
1606411587850508,0,1,45,-7,-7,-2,2,-1
1606411587850508,3,2,-12,14,10,26,13,0
1606411587858487,-2,-8,-1,-9,-9,-17,-3,-1
1606411587858487,-2,7,4,-2,-4,26,0,-2
1606411587865468,1,4,-6,1,1,-6,-3,-1
1606411587865468,-4,-11,6,-3,-7,-36,-11,0
1606411587873446,-1,5,7,-16,-1,1,5,1
1606411587873446,3,12,0,58,15,28,10,-1
1606411587888410,1,1,9,-32,-1,4,1,0
1606411587888410,-3,-5,-12,0,-3,-10,-5,-2
1606411587895388,-2,-10,-11,-1,-8,-11,-9,-2
1606411587895388,-2,-1,5,-18,3,-75,-10,0
1606411587911346,-3,3,-12,0,1,52,24,0
1606411587911346,2,-3,5,-18,-8,-13,-4,0
1606411587919324,-3,-4,16,43,10,22,-6,-2
1606411587919324,-4,-3,-7,0,3,-20,-6,-3
1606411587926306,-2,3,-18,-34,-8,3,-8,-3
1606411587926306,-4,-3,0,42,4,3,-2,1
1606411587933287,-1,-6,-4,-39,-11,-35,-1,-1
1606411587933287,1,-1,5,-8,-10,14,4,-3
1606411587948249,-1,0,-2,17,26,1,-7,-1
1606411587948249,2,3,2,-14,-5,7,9,0
1606411587964208,-2,-4,1,9,2,25,5,2
1606411587964208,-4,0,11,-6,-4,-43,-6,-2
1606411587971188,-2,4,-15,6,-10,16,3,-4
1606411587971188,1,-3,-1,-9,0,-1,-4,1
1606411587979168,1,-8,-2,14,-11,-11,-3,-2
1606411587979168,1,-1,-10,-6,-5,3,0,2
1606411588002105,-3,-1,2,9,-10,-16,-1,-2
1606411588002105,-3,-2,8,22,6,-4,-5,3
1606411588003101,-1,1,-16,-16,4,6,2,5
1606411588003101,0,-5,2,-51,-5,-11,-2,1
1606411588008089,4,5,-12,24,10,3,-3,-4
1606411588008089,0,0,2,-24,3,22,-6,-3
1606411588016068,-2,-8,7,18,-7,-25,-7,-2
1606411588016068,2,4,-2,26,5,7,3,-2
1606411588031030,8,5,21,7,-11,4,0,0
1606411588031030,-3,-9,-16,-27,-11,-18,-6,0
1606411588039005,-9,-12,2,8,2,-4,2,-1
1606411588039005,-1,-1,4,-20,-2,2,-3,-2
1606411588053968,-5,4,-24,-23,-9,-1,0,-2
1606411588053968,0,-4,22,46,12,8,1,-2
1606411588054963,2,-3,-33,5,-4,-13,-3,1
1606411588054963,-4,7,22,20,1,2,-1,-1
1606411588068925,-4,6,3,-10,-3,2,3,-2
1606411588068925,-2,-2,-1,-11,2,6,-3,1
1606411588083887,2,-4,0,-20,13,-2,1,-1
1606411588083887,0,1,6,11,-2,11,1,-4
1606411588090870,-7,-6,-4,15,4,-7,-1,1
1606411588090870,0,-1,-8,-37,-8,-7,-3,-2
1606411588098846,2,1,6,13,-5,4,0,0
1606411588098846,2,-2,-18,-13,1,4,0,-2
1606411588113808,0,-2,4,-20,-8,-1,-3,3
1606411588113808,2,3,6,52,-5,-1,-1,-1
1606411588114806,-3,-7,-7,-9,0,-5,-3,-3
1606411588114806,1,4,1,-21,1,-3,0,0
1606411588128767,-4,-6,-14,24,3,4,-2,-1
1606411588128767,12,4,-13,-56,-4,-1,1,-2
1606411588135747,1,10,19,31,-3,-10,-1,-5
1606411588135747,-3,-4,-22,-13,-4,4,-1,-2
1606411588150708,-2,-1,-1,-3,-1,6,4,-2
1606411588150708,-1,0,4,21,4,-9,-2,2
1606411588158688,-6,-5,0,-14,3,5,4,-2
1606411588158688,-3,-14,1,7,3,8,-1,2
1606411588182623,19,19,7,-17,-4,-1,-2,3
1606411588182623,-11,-14,2,10,2,-4,-2,-2
1606411588182623,1,-4,-5,28,2,-7,-5,-1
1606411588182623,-3,3,2,-16,-1,5,-1,0
1606411588196584,-1,1,20,29,3,-4,-1,1
1606411588196584,0,-5,-14,-28,-6,-1,-1,-1
1606411588197581,-2,-4,19,-6,-1,-2,-2,-1
1606411588197581,2,6,-2,17,0,-2,0,-1
1606411588220522,-5,1,23,5,3,-1,-1,-4
1606411588220522,-4,-3,-35,-23,-8,-4,1,2
1606411588221521,0,-2,7,14,11,-1,-3,-1
1606411588221521,-1,2,-5,-9,0,-1,1,-1
1606411588242461,-3,-3,0,11,-1,-2,-3,-1
1606411588242461,-2,0,27,-6,5,4,3,1
1606411588243458,4,0,-19,10,-6,-2,1,0
1606411588243458,0,-3,-3,-23,-8,0,-1,-2
1606411588256425,-3,2,-2,69,10,1,0,-3
1606411588256425,-2,-6,-2,-38,0,-3,-2,0
1606411588257421,-1,-6,4,4,-3,-2,-3,0
1606411588257421,2,5,9,8,-3,-2,1,-2
1606411588279364,-4,-2,-16,-25,-5,1,-2,-1
1606411588279364,-1,1,15,36,8,0,1,2
1606411588280359,-6,-3,21,-41,-9,-3,1,1
1606411588280359,9,6,-44,36,-2,-1,-1,-2
1606411588303300,-2,-1,2,-12,-3,-5,-3,-2
1606411588303300,-2,-5,-5,-4,8,-5,1,-1
1606411588303300,0,-4,4,7,-1,12,0,0
1606411588303300,-2,2,-3,-13,-2,-1,0,-1
1606411588316266,0,-3,5,2,-4,-2,3,0
1606411588316266,1,2,1,13,0,-2,-4,-1
1606411588317262,1,-3,0,9,-1,-6,-2,1
1606411588317262,-2,0,-3,5,2,1,-4,1
1606411588340201,0,-1,-14,-14,-3,1,-1,-1
1606411588340201,-4,-6,19,-22,-2,0,-3,-2
1606411588340201,4,6,-13,11,-2,-3,-2,2
1606411588340201,-10,-5,-2,-17,5,3,1,-7
1606411588362140,-2,4,22,34,2,-3,-1,-2
1606411588362140,-1,-1,-12,-11,-6,-1,-1,1
1606411588363138,-4,-3,-7,-15,-3,-6,0,-1
1606411588363138,3,4,13,0,-3,-1,-2,1
1606411588377101,5,-7,-35,-19,0,1,-1,0
1606411588377101,0,-2,6,23,6,1,0,1
1606411588378098,-6,-9,-1,-9,5,-2,-1,1
1606411588378098,5,2,-6,-62,-13,-5,-1,1
1606411588400039,-3,-6,11,-9,-2,0,1,2
1606411588400039,0,-8,-13,17,0,-4,-6,2
1606411588401037,2,-8,-6,-10,1,0,-3,-2
1606411588401037,-4,-3,7,4,-4,-7,-2,-3
1606411588421981,-1,-3,1,6,0,-1,-2,-1
1606411588421981,-1,-8,-20,-32,-6,-5,-3,-1
1606411588422978,-2,-7,2,1,-3,-1,-1,0
1606411588422978,-6,-6,7,22,6,-1,-5,-3
1606411588436941,13,2,-9,-7,-1,0,0,-1
1606411588436941,-8,-15,14,10,1,-2,-3,-4
1606411588436941,2,-8,-9,-1,-4,-2,-2,-2
1606411588436941,-4,-1,2,15,1,-2,-1,-3
1606411588459881,-4,1,0,-17,-2,2,1,-3
1606411588459881,-1,0,9,-3,0,-1,-2,0
1606411588460878,2,1,10,10,1,-3,-1,-3
1606411588460878,-2,-5,-30,18,-2,0,0,1
1606411588481821,-7,-1,-9,-57,-7,4,0,1
1606411588481821,0,-1,16,79,12,2,0,-1
1606411588482819,-2,-3,-25,-16,-10,-5,-2,-4
1606411588482819,-1,6,24,18,5,4,3,-1
1606411588496780,-10,-8,-15,-7,-8,-2,-1,-2
1606411588496780,0,-3,-18,-14,-2,2,1,-3
1606411588497778,-1,2,10,-18,1,0,2,0
1606411588497778,5,-4,-2,8,-3,1,1,-2
1606411588527697,-2,6,11,51,6,-2,-3,-1
1606411588527697,0,-8,0,-44,-9,-2,-1,1
1606411588527697,0,8,-1,15,1,0,-2,-4
1606411588527697,-2,0,-10,-25,-9,-1,-1,-3
1606411588542658,-3,4,11,8,5,1,0,0
1606411588542658,-2,-4,-11,-10,-4,-2,0,1
1606411588542658,-14,-8,-3,7,0,-3,0,0
1606411588542658,1,3,7,-5,2,0,1,-1
1606411588556621,-2,2,-3,-1,3,2,3,-1
1606411588556621,-1,-2,0,2,0,-1,-2,1
1606411588557618,2,-1,-7,-23,-5,-3,0,-2
1606411588557618,-5,0,9,28,4,-1,-1,0
1606411588579562,-4,-9,5,-6,0,0,0,-3
1606411588579562,-1,-2,-13,-23,-2,-1,0,-1
1606411588580557,-2,0,0,9,1,1,0,1
1606411588580557,-5,0,19,12,3,0,1,-1
1606411588602498,7,4,-30,-30,-6,-1,0,-2
1606411588602498,1,-3,5,3,-3,-5,0,-1
1606411588603495,1,-4,-1,34,2,-5,-2,-3
1606411588603495,-1,4,2,-4,-3,-1,-1,0
1606411588616464,-4,0,4,-3,6,1,-1,0
1606411588616464,-2,-2,9,5,-1,-2,-2,-4
1606411588617459,0,3,-3,6,1,2,-2,1
1606411588617459,0,-1,-11,-5,-4,1,0,-1
1606411588639399,-1,-1,-4,-4,-2,-2,-1,0
1606411588639399,0,-3,1,11,0,-2,1,1
1606411588640396,6,3,7,-5,2,1,1,-1
1606411588640396,-2,-1,-6,-4,0,1,1,-1
1606411588662338,-1,-1,0,-24,-6,0,-1,-2
1606411588662338,-8,-6,1,25,5,-3,-4,-1
1606411588663336,0,1,-20,-20,-2,3,0,0
1606411588663336,6,6,-10,-24,0,1,0,0
1606411588676300,-3,0,5,3,-2,-2,2,-2
1606411588676300,6,-7,-9,25,1,0,-3,-1
1606411588677297,-1,1,5,-16,-1,-2,1,-1
1606411588677297,-3,-2,-2,4,-6,-3,-2,-2
1606411588700238,3,7,27,32,0,-1,-3,-1
1606411588700238,-4,-3,-25,-25,-1,-1,-3,2
1606411588700238,3,-2,-3,2,3,1,1,1
1606411588700238,-1,1,0,0,-2,-2,0,-3
1606411588722178,-4,-1,-1,-28,-5,0,-2,0
1606411588722178,-2,-2,11,52,7,-3,-1,0
1606411588723175,0,-3,-4,-20,-8,-3,-4,-1
1606411588723175,-1,1,0,-2,0,-1,1,-1
1606411588736140,-1,3,-9,-12,1,-1,-2,0
1606411588736140,5,2,-5,-15,-3,0,-2,-1
1606411588744119,0,0,0,-2,-2,-1,2,-2
1606411588744119,2,0,7,10,1,-1,-2,0
1606411588760077,1,2,-10,7,1,-1,-1,-4
1606411588760077,-1,-1,6,-9,2,2,-1,1
1606411588760077,0,2,10,13,-2,-4,-1,-2
1606411588760077,-3,-1,-10,-10,1,1,1,-1
1606411588782020,0,-3,-5,1,0,-2,1,1
1606411588782020,0,-6,1,-14,-5,-2,-1,0
1606411588783015,-2,3,-10,-7,2,0,-1,1
1606411588783015,1,2,0,-6,-2,2,-1,-1
1606411588795981,-4,0,3,15,-3,-2,-5,-2
1606411588795981,-2,-7,-25,-72,-8,-2,2,3
1606411588804957,-1,3,32,85,8,0,-2,-2
1606411588804957,1,-1,2,6,1,-3,0,-3
1606411588819919,6,4,-3,3,-3,0,2,0
1606411588819919,-2,-5,6,4,1,-4,-2,-1
1606411588820915,-2,1,-11,-15,-2,3,1,-2
1606411588820915,-2,3,6,3,1,-1,0,0
1606411588841858,-1,-2,3,10,-3,0,1,-3
1606411588841858,0,-3,11,2,2,2,-1,0
1606411588843854,1,4,0,-23,1,-1,-1,-4
1606411588843854,-3,3,6,11,-2,1,-1,-3
1606411588855821,-1,4,-13,-15,0,0,-1,0
1606411588855821,-1,-9,3,4,0,-3,-4,-3
1606411588864797,2,0,-2,-23,-3,2,2,-2
1606411588864797,-1,-1,-10,-20,-3,-1,-1,0
1606411588879759,1,2,15,-1,-2,-3,0,0
1606411588879759,-8,-9,1,24,8,-1,-1,1
1606411588881751,2,9,-10,-5,-2,-2,-1,-2
1606411588881751,-2,-2,-6,-8,-5,-1,1,-2
1606411588902695,0,0,-5,-9,-2,1,0,-2
1606411588902695,-2,-7,-6,0,2,-1,-3,-2
1606411588903693,-1,2,6,-5,-1,0,0,0
1606411588903693,0,0,-6,39,2,3,0,1
1606411588915663,-5,-1,1,-6,1,-1,0,0
1606411588915663,2,-2,0,-1,-7,-3,0,1
1606411588924638,-3,-3,-4,-12,-5,-2,-2,-1
1606411588924638,0,3,7,-9,3,0,0,-1
1606411588939596,0,-1,1,7,-2,1,-2,0
1606411588939596,1,-3,-4,-6,0,-1,-4,0
1606411588941592,-9,-6,6,6,1,1,2,-2
1606411588941592,-1,3,-1,-11,-5,-4,-1,-2
1606411588962536,-5,-7,-8,-9,3,-2,-1,-1
1606411588962536,4,-3,-5,-11,-3,-4,-2,1
1606411588963534,7,5,-2,4,-5,-1,-1,1
1606411588963534,-10,-5,6,-15,1,2,4,0
1606411588975500,-2,2,12,18,-2,-1,-2,-2
1606411588975500,3,0,2,8,1,0,-1,2
1606411588984478,-2,-1,14,21,2,-2,-1,-1
1606411588984478,3,4,4,10,0,0,-3,-2
1606411588999437,2,-1,-8,-12,-4,-2,2,-1
1606411588999437,-6,-4,2,-19,-2,-4,-4,0
1606411589001432,-2,-2,-1,10,0,1,-1,-3
1606411589001432,3,-1,-4,10,2,1,-2,-2
1606411589022375,-1,0,5,2,-3,-1,3,0
1606411589022375,0,-1,-2,-9,2,2,-1,0
1606411589023373,-4,-3,-12,-18,-3,-4,0,-2
1606411589023373,2,3,-2,-8,0,-2,-2,-3
1606411589036339,-2,0,0,2,2,0,0,1
1606411589036339,1,-6,-2,8,-1,-2,-1,0
1606411589045314,-1,3,-11,-21,1,0,-1,-1
1606411589045314,-3,0,19,58,5,3,0,-1
1606411589059277,0,2,0,-30,-5,-1,-3,-5
1606411589059277,-1,-6,-16,48,4,-2,1,1
1606411589066258,-4,1,10,-35,-4,0,0,0
1606411589066258,0,2,-4,-6,-1,-3,-3,-2
1606411589082218,1,1,0,-1,-4,-3,-2,0
1606411589082218,2,-2,4,-4,2,1,-3,0
1606411589084210,-1,-3,-12,-16,-1,-1,1,-3
1606411589084210,1,1,-3,-16,-5,-2,-2,-1
1606411589105154,-2,-2,-1,7,-2,2,-1,0
1606411589105154,0,-5,-3,-10,-3,-3,1,0
1606411589106151,1,-3,-3,9,-4,-2,-1,0
1606411589106151,-2,5,-4,-21,-1,-3,1,0
1606411589120115,-1,0,-4,9,7,3,1,-2
1606411589120115,-6,-7,4,8,-5,-3,-3,0
1606411589121113,2,-1,-3,-6,0,1,-2,-3
1606411589121113,2,4,-7,-4,-6,-1,-1,-2
1606411589142056,-4,-3,3,45,2,0,-2,-1
1606411589142056,1,-6,1,-29,-2,-2,2,1
1606411589144050,-2,3,-4,-11,-2,0,-1,-2
1606411589144050,1,-1,-21,20,3,2,-1,-1
1606411589164998,-2,1,-6,-11,0,-1,-3,0
1606411589164998,-2,-5,3,-3,1,-2,-3,0
1606411589165995,-2,1,0,-1,-3,0,-2,-3
1606411589165995,-2,0,6,-8,-1,-2,3,-2
1606411589179955,-2,-4,-4,-23,-1,1,2,1
1606411589179955,2,-3,3,33,1,-3,-3,-1
1606411589180954,1,0,-8,-12,3,3,-2,-1
1606411589180954,-3,1,-4,-32,-3,-1,-1,-2
1606411589201896,-1,-3,4,48,1,-2,0,3
1606411589201896,-1,-2,12,-5,1,-1,0,-3
1606411589203891,1,1,-16,0,1,-3,2,-1
1606411589203891,-1,0,10,-6,-2,-2,-1,-2
1606411589231819,-1,-1,-18,-10,0,0,-2,-4
1606411589231819,-1,-4,11,0,-2,-1,-1,2
1606411589233810,-1,-2,-7,4,-4,-3,-3,-1
1606411589233810,0,6,-11,-7,0,3,1,0
1606411589238797,3,3,7,-7,1,-2,-3,0
1606411589238797,-3,-8,0,-4,-4,0,-1,1
1606411589245778,0,0,6,1,3,-2,2,-3
1606411589245778,-1,-1,4,11,1,0,2,1
1606411589261735,0,-4,0,-12,-7,1,-2,-3
1606411589261735,2,-3,-12,-9,1,-3,-4,-6
1606411589263730,0,4,5,13,-7,0,-1,1
1606411589263730,-1,-1,-4,3,-2,1,0,-2
1606411589285672,-6,-2,5,-2,5,1,-1,-3
1606411589285672,-1,-4,-6,-11,2,-1,-2,0
1606411589286670,-3,-3,4,7,-6,-2,1,-2
1606411589286670,-1,2,3,6,-1,-2,-1,0
1606411589298638,-1,1,-2,-13,-3,-5,-1,-1
1606411589298638,0,-3,-4,-2,-2,0,1,-2
1606411589305621,2,4,5,10,4,-1,-1,-1
1606411589305621,-4,-4,-4,0,-1,0,0,-1
1606411589322576,0,-3,3,-7,-4,0,-3,0
1606411589322576,-1,-1,-6,-5,4,1,2,1
1606411589323582,-1,1,4,8,0,0,-1,1
1606411589323582,0,2,0,-7,-2,-6,-2,-3
1606411589344515,-2,-3,-2,-4,4,-1,0,-1
1606411589344515,-1,-3,-1,1,-2,-4,-2,-1
1606411589346510,-1,3,1,-1,0,3,0,-1
1606411589346510,-2,-2,0,7,4,2,0,0
1606411589358477,4,-11,7,-4,-4,-6,-4,0
1606411589358477,0,14,-35,-5,1,4,3,4
1606411589367453,-4,-2,49,4,-1,-6,0,-4
1606411589367453,0,0,-12,-10,-4,2,1,-1
1606411589389394,-5,14,14,17,4,-4,-2,1
1606411589389394,-5,-9,-11,-9,-3,-2,-2,0
1606411589391389,-2,0,-7,6,-1,1,-3,-1
1606411589391389,-1,-15,-19,-3,-4,1,2,1
1606411589404354,-1,4,18,2,3,6,1,-3
1606411589404354,-2,-13,-2,-10,1,4,-1,1
1606411589406349,0,1,-11,1,-4,0,-2,-1
1606411589406349,0,8,16,4,-3,-4,-1,-3
1606411589418317,0,-3,-26,-8,9,8,2,-2
1606411589418317,0,-2,16,7,-12,-7,-3,-1
1606411589427293,-1,2,-9,-7,9,-3,-2,0
1606411589427293,3,12,11,17,-4,-1,-3,-2
1606411589442253,-1,-6,-7,-14,-31,-1,-1,1
1606411589442253,-1,-9,-14,1,5,-2,0,1
1606411589444248,1,11,14,-4,1,8,-1,-3
1606411589444248,-2,3,-8,0,3,-5,-1,2
1606411589465194,-2,-4,-5,-2,0,-3,1,-3
1606411589465194,-1,-8,-2,-7,-3,1,0,1
1606411589466189,-3,-10,-16,-7,-15,-2,2,5
1606411589466189,-2,-2,-14,1,-5,2,0,2
1606411589478157,-1,9,25,-21,-2,-2,-1,2
1606411589478157,4,1,17,-6,-2,-10,-3,1
1606411589487133,4,6,-5,41,19,9,4,-2
1606411589487133,-1,-1,-1,0,-5,4,2,0
1606411589502093,2,-1,-1,7,15,-5,-3,0
1606411589502093,-1,-2,20,17,-20,-6,1,2
1606411589504088,-1,0,6,-29,24,0,-2,1
1606411589504088,5,4,-9,-16,-32,-9,-4,1
1606411589525032,-3,-15,-24,10,5,-6,-7,1
1606411589525032,1,-1,5,-18,-2,-5,-2,3
1606411589526031,2,-3,-14,-12,-20,-6,0,0
1606411589526031,-4,-4,28,4,-12,-9,-8,-3
1606411589537998,0,-1,-9,-12,2,-4,-1,-2
1606411589537998,-2,-10,-22,-14,7,-1,-3,-1
1606411589546975,0,-2,5,13,-10,-9,-2,-1
1606411589546975,0,0,0,-13,17,-1,-1,-1
1606411589561933,-4,-13,12,33,1,3,1,4
1606411589561933,-3,-9,-7,1,3,-1,-6,-2
1606411589563928,-3,1,-7,-4,4,2,0,0
1606411589563928,-2,0,4,0,8,0,-2,-2
1606411589584873,0,-6,-10,1,2,-1,0,2
1606411589584873,-1,4,4,-11,-4,-2,2,0
1606411589585871,-4,-3,11,16,7,-3,-3,-3
1606411589585871,-3,-1,-7,-1,6,5,2,-1
1606411589598835,1,-10,-9,-13,-12,-2,-5,0
1606411589598835,-2,2,-2,-17,4,-2,-13,-5
1606411589607811,-1,-1,6,18,6,4,13,0
1606411589607811,-6,-8,4,10,-10,-8,-1,-2
1606411589621774,1,-3,-7,-52,-4,-4,-2,-1
1606411589621774,-1,5,33,85,13,2,1,-2
1606411589623772,-1,4,-6,-20,1,4,0,-3
1606411589623772,1,1,-11,-5,2,3,3,-1
1606411589644714,-3,-8,1,3,-2,3,13,2
1606411589644714,0,4,14,3,-1,-5,-8,-6
1606411589646710,-2,-1,-9,-12,-9,-3,-4,2
1606411589646710,0,1,-10,6,6,9,10,-1
1606411589667651,-1,0,2,-4,-2,-4,-5,-1
1606411589667651,-2,-4,-14,-15,-5,-4,0,-1
1606411589668647,-2,4,4,10,-3,-3,-12,-2
1606411589668647,-2,-5,-2,-5,8,1,28,0
1606411589682613,-2,-13,-4,-1,6,-3,-31,-4
1606411589682613,0,-1,-4,-2,0,0,-29,-5
1606411589683609,1,5,-1,-5,-2,6,28,5
1606411589683609,-1,-3,-2,-8,6,-1,-23,-3
1606411589704552,-2,-4,-1,7,0,-6,12,-1
1606411589704552,-1,-4,-1,-11,-1,0,-16,-1
1606411589706547,-2,0,-10,-2,-4,2,-20,-1
1606411589706547,2,0,5,-5,-5,-3,-4,1
1606411589718515,0,1,2,8,1,1,0,3
1606411589718515,-4,2,-11,-12,-3,1,4,-4
1606411589727491,1,4,8,3,-1,-3,1,-5
1606411589727491,-1,2,3,-5,-3,-3,7,1
1606411589742450,-3,-8,0,10,5,-5,-7,1
1606411589742450,2,6,-3,-4,1,4,18,3
1606411589743448,-2,-1,-4,-4,-4,0,5,-3
1606411589743448,-2,-2,1,0,0,-3,-19,-2
1606411589764392,-2,-2,-1,-1,-6,-1,13,1
1606411589764392,1,-1,-3,3,4,-2,-7,-10
1606411589770375,-2,-1,-2,-7,-6,0,-2,7
1606411589770375,-2,-4,3,3,4,-1,-8,1
1606411589778357,-4,-2,-2,-1,2,-1,-40,3
1606411589778357,3,6,-1,-1,1,5,2,-7
1606411589793314,-19,-4,-2,-1,-2,-7,-17,-1
1606411589793314,6,2,1,7,3,0,17,-5
1606411589802290,-3,-8,-1,-1,-2,1,-30,-1
1606411589802290,-1,2,0,-6,-3,6,40,3
1606411589804285,6,2,-1,3,1,-5,16,-5
1606411589804285,-2,0,0,-3,-2,0,-5,-1
1606411589825229,-5,-6,-3,0,0,-3,-2,-5
1606411589825229,-4,-5,-3,4,1,-1,3,2
1606411589826227,2,2,2,4,5,3,4,-2
1606411589826227,-2,0,-1,-13,-8,2,-1,1
1606411589838194,5,1,-3,0,0,-1,13,-3
1606411589838194,0,-2,-7,-3,-1,-3,-2,1
1606411589855149,2,3,-1,3,1,2,2,1
1606411589855149,0,-2,-2,0,1,-5,-20,-1
1606411589862131,1,-2,1,3,4,1,11,2
1606411589862131,-1,0,4,-2,1,2,12,2
1606411589864126,0,-3,-2,-3,-1,-5,-46,-4
1606411589864126,-1,8,2,1,0,5,30,0
1606411589885070,-2,-5,-3,-5,-6,-5,23,-1
1606411589885070,1,-3,1,8,4,2,-9,-2
1606411589886070,1,-4,-6,-8,-5,2,7,-3
1606411589886070,0,8,1,6,-1,1,7,3
1606411589898035,-1,-3,0,2,1,-4,10,-2
1606411589898035,4,1,0,2,-1,-2,-42,4
1606411589907010,10,4,-1,-4,-2,1,24,1
1606411589907010,-1,-4,-3,-2,-1,-4,-11,-6
1606411589921973,3,-2,2,3,4,5,2,6
1606411589921973,-2,-3,-2,-3,-2,-2,-4,-6
1606411589927958,-1,-1,-1,0,-4,-8,-15,-5
1606411589927958,-2,3,2,2,2,4,14,0
1606411589944911,-19,-9,0,2,-1,1,-5,4
1606411589944911,0,2,-2,-5,-4,-9,6,-6
1606411589945907,-2,5,0,-1,2,11,43,7
1606411589945907,-6,-4,-2,-5,-4,-3,-14,-5
1606411589958876,13,0,2,4,3,2,15,-3
1606411589958876,-6,-5,-3,-10,-6,-3,-7,1
1606411589967851,-3,-2,-1,-1,-3,1,16,0
1606411589967851,-2,-1,-1,-1,-2,-2,-2,-3
1606411589981813,7,3,-2,-1,2,5,45,5
1606411589981813,-2,0,3,4,1,-2,-16,-1
1606411589983809,1,-1,-4,-2,1,-1,-24,-5
1606411589983809,3,0,-1,-4,-3,-2,2,0
1606411590004749,0,-9,-4,-6,-2,-7,-29,-6
1606411590004749,0,4,2,4,-1,-1,10,2
1606411590006744,-4,-3,-5,-3,-6,-6,4,-9
1606411590006744,3,1,2,3,5,5,-27,6
1606411590018714,-4,-7,-5,-7,-2,-8,2,-5
1606411590018714,-3,4,3,3,0,7,16,4
1606411590027691,2,2,3,6,9,1,-7,-5
1606411590027691,-3,2,-4,-3,-7,-1,-1,-3
1606411590042648,0,-4,4,-6,-2,-1,-13,-1
1606411590042648,0,2,-4,-1,-4,-3,10,0
1606411590043645,-21,-2,0,1,-1,7,18,4
1606411590043645,3,0,-1,3,2,1,-2,0
1606411590064592,-6,-7,-2,-1,-1,-4,4,0
1606411590064592,1,0,-2,-2,1,-3,-35,-4
1606411590066587,4,2,0,2,-2,-3,6,-5
1606411590066587,-4,-7,-2,-2,2,3,13,3
1606411590087531,-5,-3,0,-2,-5,-4,6,2
1606411590087531,-3,-5,-1,-3,0,-2,-7,0
1606411590088529,3,5,-3,-5,-5,-6,-23,-4
1606411590088529,-3,1,-1,1,1,-1,1,-3
1606411590102488,5,-1,-2,3,2,-3,-19,-2
1606411590102488,-3,-1,1,-2,2,1,24,-1
1606411590103489,-1,-3,-4,-2,0,-4,-8,0
1606411590103489,2,8,1,0,-4,2,-4,0
1606411590132412,0,-4,-1,2,0,-1,6,5
1606411590132412,2,-1,-2,-3,-4,-2,1,1
1606411590133405,-1,0,-1,-3,-1,-1,3,-3
1606411590133405,0,-1,-2,0,0,-1,-10,-5
1606411590147370,2,-2,-2,-3,-5,-4,-10,-1
1606411590147370,-3,1,-1,1,1,-1,10,-1
1606411590148369,4,2,0,-4,-2,1,-7,1
1606411590148369,-3,2,0,0,0,0,-4,-2
1606411590162328,-2,-4,0,-4,0,-2,-9,-1
1606411590162328,0,1,-2,1,-4,2,12,-1
1606411590164323,-1,0,0,10,2,-3,-7,0
1606411590164323,2,1,0,-10,-1,2,2,-2
1606411590184272,0,-5,0,5,1,-4,0,-2
1606411590184272,4,4,1,-4,0,1,3,-3
1606411590186264,-1,-1,3,12,-3,1,-1,2
1606411590186264,0,-4,-1,-6,-8,-1,0,0
1606411590206214,1,-4,-32,-33,14,-1,-3,2
1606411590206214,-1,4,66,57,-8,-2,0,-2
1606411590215187,1,1,-8,-15,10,-2,-4,-2
1606411590215187,-3,1,4,25,10,7,8,-1
1606411590221170,0,-10,0,-2,-3,-3,-7,0
1606411590221170,0,-8,-40,-40,-31,-4,3,-3
1606411590230147,-1,3,22,-14,-9,-4,2,0
1606411590230147,-1,26,3,37,3,-5,-5,-2
1606411590245107,-3,-7,41,-7,-6,-5,-3,-2
1606411590245107,0,-1,-38,-19,3,-1,1,-1
1606411590246104,-2,-19,6,-10,-33,-7,-6,-1
1606411590246104,0,10,14,31,39,14,5,1
1606411590267049,-3,5,8,8,-8,-4,-5,0
1606411590267049,-4,-11,-12,-1,1,-3,1,1
1606411590269044,2,13,-8,-24,-2,-2,-1,-2
1606411590269044,1,-21,8,14,28,10,4,0
1606411590281013,1,14,-21,-7,-7,-1,-4,-2
1606411590281013,0,11,17,3,7,0,-2,-2
1606411590289988,0,-2,-21,-13,-10,-2,-1,-3
1606411590289988,-2,-11,-11,-7,-13,-7,-3,-1
1606411590304947,0,-14,5,3,0,0,-1,2
1606411590304947,0,4,-1,2,16,0,1,-2
1606411590305948,-2,1,3,7,6,7,3,-3
1606411590305948,0,-1,-9,-21,-25,-10,-3,-2
1606411590326891,-1,-2,14,14,3,-2,-4,-1
1606411590326891,-4,-1,-12,-7,2,0,0,-2
1606411590328887,-1,-4,-8,6,9,5,4,-1
1606411590328887,-1,-1,3,-18,-13,-3,-3,-1
1606411590341850,-1,-6,-12,-4,-4,0,1,0
1606411590341850,-2,-3,7,10,5,2,1,0
1606411590349831,0,4,1,9,-4,-1,-4,-2
1606411590349831,-1,7,-26,-29,-10,-8,-5,0
1606411590364789,2,-10,-14,10,8,-1,-2,-2
1606411590364789,-1,5,27,5,-2,-2,0,0
1606411590366785,-1,0,7,2,0,-1,0,0
1606411590366785,0,2,-4,-4,4,1,2,0
1606411590387728,-1,-10,-13,-9,2,-1,-1,-2
1606411590387728,1,0,12,3,24,1,-1,-3
1606411590388725,0,4,-7,8,-12,0,-5,0
1606411590388725,0,5,2,-9,10,-2,-1,-2
1606411590409668,-3,-10,-8,-10,-14,-2,-2,0
1606411590409668,-1,5,3,17,31,8,0,-2
1606411590411664,-1,7,24,44,25,2,-1,-3
1606411590411664,-2,-5,-17,-24,-14,2,1,0
1606411590424629,0,-4,18,2,-4,-5,-3,1
1606411590424629,-3,-2,-22,-10,-11,-3,-1,-1
1606411590426625,-3,4,9,2,5,0,2,-1
1606411590426625,-1,0,-3,-6,-11,-4,-2,-1
1606411590447569,-1,-7,-1,0,9,-1,-2,-1
1606411590447569,2,-2,-4,-2,-7,2,1,0
1606411590448584,-1,-6,-15,-19,-18,-4,-1,1
1606411590448584,-4,4,2,16,-10,-2,-3,-4
1606411590461530,0,-7,1,-20,2,-1,-3,2
1606411590461530,-3,-9,4,13,-15,-8,-2,-3
1606411590469508,1,7,-20,-30,20,7,2,-2
1606411590469508,2,-3,2,8,-19,-9,-2,1
1606411590484469,0,-6,3,19,11,13,2,1
1606411590484469,0,-4,-7,-6,-25,-8,-2,0
1606411590486463,-1,2,0,-15,10,-2,2,-3
1606411590486463,0,5,4,28,-9,-4,-2,-2
1606411590507408,-1,-9,-8,-4,1,-3,-2,0
1606411590507408,0,0,-6,-7,-3,4,0,0
1606411590508403,0,5,-14,31,5,-1,-1,-3
1606411590508403,-1,1,-19,-92,-10,1,1,-2
1606411590520373,-1,-6,17,48,-5,-4,-2,1
1606411590520373,0,-6,-3,-19,3,-2,6,-3
1606411590530344,0,12,1,31,0,6,-24,-1
1606411590530344,-3,-6,-6,-8,19,-33,1,-3
1606411590544310,-3,-5,-45,-33,30,55,0,-1
1606411590544310,1,5,18,2,-2,-22,4,3
1606411590546302,-2,-7,10,18,-15,24,4,-3
1606411590546302,1,9,30,9,-12,-15,-7,1
1606411590567247,2,-5,-1,-10,10,-11,1,2
1606411590567247,-1,-5,-6,15,1,18,-6,-1
1606411590569240,-3,-6,5,-13,-10,-37,1,-2
1606411590569240,-1,6,11,11,-3,36,-3,-2
1606411590581208,2,-9,4,6,2,-7,2,1
1606411590581208,-1,2,-12,-14,2,-15,-7,0
1606411590597166,10,10,8,-8,-3,5,2,0
1606411590597166,-5,-6,-10,7,4,6,16,2
1606411590605144,-3,-17,-7,-48,-7,-21,-38,7
1606411590605144,4,-4,2,38,-3,11,7,-1
1606411590611128,1,0,-8,-39,-1,-25,10,2
1606411590611128,-3,-5,6,66,10,1,-20,-3
1606411590627086,1,-8,4,-9,-5,16,28,9
1606411590627086,-1,-3,7,-33,-8,-9,15,0
1606411590629080,-4,-9,-17,-6,-3,-6,-5,0
1606411590629080,-1,-4,3,-1,-4,2,1,-1
1606411590641048,-2,-20,7,-2,-17,-27,-3,-4
1606411590641048,1,6,15,26,1,3,-12,2
1606411590650024,-2,-2,-17,-11,-5,4,2,1
1606411590650024,-1,-13,1,5,2,4,-2,3
1606411590664984,-2,-6,-24,-19,-9,-10,-3,-1
1606411590664984,1,-5,15,35,1,-3,-3,1
1606411590665981,-3,-2,-2,-16,4,12,-2,-1
1606411590665981,1,-6,2,-7,-1,-13,-6,3
1606411590686926,-3,-9,-1,16,-4,-14,-5,-6
1606411590686926,-5,-3,-9,-17,6,10,3,-2
1606411590688921,-5,-2,5,8,-1,-7,1,-2
1606411590688921,-2,-14,-8,-5,5,-1,-1,3
1606411590700889,-2,-2,8,1,0,-4,-1,-1
1606411590700889,-3,6,-24,-41,-2,4,-3,-1
1606411590709865,-3,5,19,36,5,3,-1,-1
1606411590709865,2,-5,12,4,3,0,0,-3
1606411590724827,-1,0,8,8,-5,0,0,-2
1606411590724827,2,0,-10,-13,-5,-4,-3,-2
1606411590726822,6,0,-18,-19,-6,-3,0,1
1606411590726822,-6,-17,-4,-8,2,1,-3,-1
1606411590747765,-4,-1,13,15,2,-4,-1,-2
1606411590747765,-1,-2,10,5,1,-1,0,1
1606411590748764,1,5,-18,-29,0,5,1,0
1606411590748764,2,-3,-1,-22,2,-1,-2,1
1606411590760729,-2,-2,2,48,2,-1,-6,-2
1606411590760729,0,0,-11,-7,-6,0,-4,-1
1606411590769705,-4,0,16,15,2,1,0,1
1606411590769705,-2,-8,-17,-27,-13,-5,-1,2
1606411590783669,0,12,6,2,18,1,2,-2
1606411590783669,-2,-3,-9,-16,-1,0,-2,-2
1606411590790649,-1,1,-4,5,-7,0,-2,-1
1606411590790649,0,0,34,57,3,-2,-4,1
1606411590807603,1,4,-28,-14,-4,-2,2,-1
1606411590807603,0,1,-4,-12,4,3,2,-3
1606411590808600,0,-4,2,13,7,1,1,0
1606411590808600,2,4,1,-35,-1,-1,0,-1
1606411590820573,1,-1,-6,8,-9,0,0,2
1606411590820573,-3,2,3,27,2,-2,-4,-1
1606411590837523,-6,-7,-1,-31,-5,-2,-1,-2
1606411590837523,-1,-4,-14,-10,2,-1,2,3
1606411590844504,1,2,10,8,-4,-3,-1,-1
1606411590844504,-2,2,-11,-9,-2,-1,0,-2
1606411590850490,-1,2,5,-2,-3,2,-2,0
1606411590850490,-1,-8,-3,29,14,0,0,0
1606411590867443,-2,0,6,1,-6,-4,-4,-2
1606411590867443,-1,-3,2,10,1,1,-1,-3
1606411590868441,-1,1,1,-11,0,-1,-1,1
1606411590868441,-1,-10,5,-4,0,-2,-3,-2
1606411590881410,0,1,-5,-9,-2,1,2,-1
1606411590881410,-1,2,0,-9,-3,0,0,-3
1606411590897363,1,7,9,21,-1,0,-4,-2
1606411590897363,-5,-7,-6,-11,-2,-3,2,3
1606411590904344,5,3,0,-1,3,3,3,-1
1606411590904344,-3,-6,13,17,-4,0,-2,1
1606411590911326,0,3,8,25,2,0,1,-1
1606411590911326,-1,-3,-8,-19,1,-1,-3,-1
1606411590927283,-2,-1,7,12,-2,-2,0,0
1606411590927283,1,4,-5,-6,2,1,-3,0
1606411590929278,-8,-5,1,2,-2,2,0,-1
1606411590929278,8,0,5,6,-2,-3,-3,-2
1606411590941245,-5,-3,2,18,-3,-4,-3,-4
1606411590941245,-1,4,18,-32,-4,1,1,-2
1606411590950222,-2,-1,-3,-16,-2,-1,1,0
1606411590950222,-5,-9,-6,15,1,-3,-2,0
1606411590964184,2,-3,0,-6,-1,-1,0,-4
1606411590964184,1,3,-8,6,-3,-1,-1,0
1606411590971165,0,-1,7,-5,2,2,-1,-2
1606411590971165,1,-4,-27,-13,4,2,-1,3
1606411590987124,-3,0,1,26,-5,-1,-5,-3
1606411590987124,-4,1,-4,-35,-2,0,3,0
1606411590989119,0,-2,-6,2,-2,-3,-3,-3
1606411590989119,-1,-4,-2,-2,-1,2,0,0
1606411591010062,-4,-1,-1,-9,-2,0,2,0
1606411591010062,-2,0,-19,-1,-1,-1,-8,-2
1606411591011063,0,-1,-4,-10,-1,-2,0,0
1606411591011063,-2,-6,0,-5,-1,0,0,1
1606411591024024,-7,0,3,-1,-4,-3,-3,-1
1606411591024024,6,1,-5,-14,-5,-1,0,5
1606411591031009,-7,-3,24,49,7,0,2,-4
1606411591031009,-2,-7,-18,-19,-5,-2,0,-2
1606411591046965,-1,2,0,-14,1,0,3,-1
1606411591046965,-4,-2,-1,19,-2,1,2,-3
1606411591048959,3,0,-11,-47,-6,-1,-1,2
1606411591048959,-2,-2,12,21,-1,-4,-3,0
1606411591069901,2,0,-2,1,1,1,-1,1
1606411591069901,-2,1,-1,5,-3,0,2,-1
1606411591070900,1,2,-9,6,-3,1,-1,-1
1606411591070900,0,-5,11,-2,1,-2,-2,0
1606411591084863,3,-2,-9,-27,-1,1,-2,0
1606411591084863,-2,1,0,22,1,-1,0,-2
1606411591086859,0,1,-2,0,-1,0,-1,1
1606411591086859,-1,-5,2,-17,-4,-1,-1,0
1606411591114784,0,-1,-5,8,1,-2,2,-3
1606411591114784,-2,4,1,-32,-2,-2,-2,-4
1606411591116779,0,-1,11,29,3,2,0,0
1606411591116779,-3,-4,-23,-25,-4,-3,-4,-2
1606411591129742,2,4,-2,5,0,1,-2,-2
1606411591129742,-1,1,3,9,-2,0,2,0
1606411591131737,1,2,5,23,2,0,-1,0
1606411591131737,1,-5,-3,-38,-5,1,-6,2
1606411591143704,1,3,-12,-2,0,-1,0,-2
1606411591143704,-1,-2,2,22,-4,-2,-1,-2
1606411591150687,-2,2,-10,-48,-2,2,2,-2
1606411591150687,-1,-4,8,22,2,-2,-3,1
1606411591166643,-2,0,-4,-16,-2,-1,-1,0
1606411591166643,0,2,-3,8,5,3,2,-1
1606411591174622,-7,0,6,-17,-5,-2,0,-1
1606411591174622,2,-5,-8,18,-2,-4,-1,-1
1606411591190580,-3,0,2,-12,-4,0,0,-2
1606411591190580,0,-1,-4,3,0,-3,-7,-4
1606411591191578,2,1,-5,-3,-4,-1,10,-1
1606411591191578,-4,-4,-4,-6,2,0,-4,1
1606411591204542,-1,-1,8,10,1,-1,0,1
1606411591204542,1,1,-2,-3,1,-1,-1,-2
1606411591210526,0,-2,-9,-10,1,0,-3,-2
1606411591210526,-2,-1,14,34,2,-3,1,0
1606411591227481,0,2,13,-46,-4,0,1,-1
1606411591227481,-1,-2,-19,11,-6,-1,-2,0
1606411591228481,0,3,3,6,3,0,-3,-2
1606411591228481,-2,-5,-2,-14,3,-1,4,-1
1606411591249422,-1,-1,3,13,-3,-1,-1,-1
1606411591249422,-1,3,11,-7,2,1,1,-3
1606411591251417,1,0,-12,-2,-5,-4,-3,-1
1606411591251417,-4,-6,10,45,6,-2,-4,-1
1606411591264382,3,0,-2,-10,1,-1,0,0
1606411591264382,-3,-1,3,12,-2,-2,-1,-1
1606411591270366,0,2,-5,5,-4,-2,1,-1
1606411591270366,-2,-2,3,-26,1,0,4,0
1606411591287321,0,-3,-11,1,-4,-4,-3,-2
1606411591287321,-1,2,-7,-18,2,1,0,-1
1606411591289316,-3,1,2,12,-3,-2,-8,-1
1606411591289316,1,-4,5,-4,0,1,0,0
1606411591309262,0,-1,-3,-2,1,0,2,-2
1606411591309262,0,1,1,16,-3,1,1,-1
1606411591311257,-1,2,2,-1,1,3,1,-3
1606411591311257,0,-4,-7,-12,0,-4,-3,0
1606411591324222,-2,0,2,21,0,0,0,0
1606411591324222,0,2,8,-13,-2,-2,-1,-2
1606411591331203,1,-2,-8,11,1,1,2,-2
1606411591331203,2,-4,0,-13,1,-3,0,1
1606411591347163,-1,-2,-8,-5,-3,0,-3,-3
1606411591347163,-2,4,4,2,0,0,-1,2
1606411591349160,0,-4,-9,-3,-1,-1,-3,1
1606411591349160,-1,-6,2,-4,-2,-4,-6,0
1606411591370099,-4,-1,-1,-24,-1,-1,1,-1
1606411591370099,2,1,-18,2,-2,0,2,1
1606411591371098,-1,2,3,-12,-1,0,-2,-3
1606411591371098,-1,-4,-1,2,-1,-1,-4,-2
1606411591384064,-2,-1,-3,-3,-3,-2,-1,1
1606411591384064,-2,1,3,-4,-1,1,2,-1
1606411591391044,1,-1,-3,-1,1,-1,-2,-3
1606411591391044,-1,-8,-3,-1,-2,-2,-3,1
1606411591407000,-1,3,6,10,1,-1,1,-1
1606411591407000,0,-1,-6,8,0,-1,-2,-1
1606411591408995,-1,0,-8,-15,-2,0,1,0
1606411591408995,2,-5,-1,-2,0,-3,3,0
1606411591429941,1,1,13,23,1,-1,-2,-2
1606411591429941,-2,1,-8,-2,-4,-3,1,-2
1606411591430939,-5,-2,0,-24,-3,1,-6,0
1606411591430939,1,-6,1,20,-1,-5,-3,-1
1606411591443902,-2,1,-5,-4,-1,0,0,0
1606411591443902,-1,3,-1,1,-3,-1,0,-2
1606411591452880,0,-1,13,9,2,1,4,-2
1606411591452880,-1,-4,-22,-16,-1,-3,-5,-1
1606411591466842,0,0,1,-12,-1,-3,-2,-2
1606411591466842,-6,2,1,-7,-1,0,0,-2
1606411591468835,2,0,7,-1,-4,-1,0,0
1606411591468835,-3,-9,8,18,3,1,-1,-2
1606411591489779,0,2,-7,-2,1,-1,-2,-3
1606411591489779,-3,-1,4,-2,1,1,0,-3
1606411591491774,-3,1,5,-3,-2,0,0,-1
1606411591491774,1,-4,-24,-16,-1,0,-2,4
1606411591503742,1,4,12,29,0,0,0,0
1606411591503742,0,3,2,-5,-3,-1,1,1
1606411591512718,-1,1,-7,-8,1,-1,-2,-2
1606411591512718,-2,-6,10,19,1,-3,-2,-1
1606411591527681,-2,1,-6,-7,-1,3,0,-2
1606411591527681,0,-1,3,-5,-1,1,0,-1
1606411591528680,0,-1,-1,15,-2,1,-1,-1
1606411591528680,-2,-2,-9,-19,-3,3,0,1
1606411591550619,2,0,10,18,-2,-5,-11,-4
1606411591550619,2,2,-9,-38,-4,0,11,1
1606411591551620,-1,-2,16,66,7,0,-7,0
1606411591551620,-1,-4,-18,-22,-4,-4,-2,5
1606411591563582,2,1,-3,-7,-2,-1,3,-2
1606411591563582,-3,2,-2,5,0,0,-4,-3
1606411591572558,0,2,3,-2,2,0,2,-2
1606411591572558,3,-3,-1,-13,0,-4,0,0
1606411591587519,-2,1,0,22,1,2,0,0
1606411591587519,-1,-1,10,16,-1,-2,-3,-2
1606411591593503,-1,0,-8,-23,-2,0,0,2
1606411591593503,-2,-5,-7,7,1,-1,-4,-2
1606411591617439,0,4,-5,-27,-3,-1,5,-1
1606411591617439,1,0,3,1,-2,3,0,-2
1606411591618438,-2,-3,3,7,1,0,-2,-1
1606411591618438,1,-6,0,-9,1,-2,0,1
1606411591623423,-2,0,-3,-4,-2,1,1,-1
1606411591623423,-2,2,3,8,1,0,-1,0
1606411591632399,-1,-1,-10,-5,-2,-3,-2,-1
1606411591632399,-9,-3,8,3,0,-3,-3,0
1606411591647361,4,-2,-2,-9,-1,2,7,5
1606411591647361,-7,0,3,6,1,0,-3,-3
1606411591649353,0,0,-5,-8,-2,0,1,-1
1606411591649353,-3,-3,2,-6,-1,-3,-7,2
1606411591669299,-18,-10,4,14,1,-1,-1,-5
1606411591669299,-2,3,-7,-28,-3,1,-1,1
1606411591671294,-7,-1,4,39,4,0,-2,-1
1606411591671294,18,-3,4,0,-2,-4,-7,3
1606411591683262,2,-6,-5,-3,3,-1,4,0
1606411591683262,3,-1,-1,1,-1,0,-29,3
1606411591692238,-4,11,-3,-10,0,7,47,4
1606411591692238,-3,-11,9,7,1,1,-5,-1
1606411591707198,-2,12,-2,-3,-5,-3,-2,-5
1606411591707198,0,-5,-2,0,1,0,0,2
1606411591709193,6,-10,-1,-8,-2,-6,-18,-1
1606411591709193,-4,-3,1,4,1,-1,2,-3
1606411591730137,6,18,-1,-12,-5,-4,-2,-2
1606411591730137,-4,-4,4,7,2,-1,2,1
1606411591731134,-7,-3,-16,-9,-5,-6,-7,-2
1606411591731134,5,-4,2,0,3,3,8,1
1606411591743102,-6,2,-3,-1,-2,-3,-11,-2
1606411591743102,3,-5,-1,3,-3,-1,4,-4
1606411591752079,-2,2,1,-7,1,0,-6,1
1606411591752079,-3,-5,-3,-5,0,-2,-3,-4
1606411591767042,1,-1,0,4,-2,3,5,0
1606411591767042,-6,2,-7,-2,-2,-4,-8,-6
1606411591769038,0,-5,-5,-9,-2,-3,-1,-3
1606411591769038,4,-1,5,3,-2,0,-2,1
1606411591789981,-2,-4,-3,-1,0,-1,-2,0
1606411591789981,2,6,-4,-3,-4,-1,8,0
1606411591795964,-1,-3,-3,-2,-1,-2,-11,2
1606411591795964,-6,-5,4,6,2,-5,-2,-1
1606411591803020,1,-1,0,-13,-1,1,4,-1
1606411591803020,3,3,2,19,1,0,0,-2
1606411591812917,2,-4,-1,-14,-3,1,-2,-2
1606411591812917,-4,-4,5,15,1,0,1,0
1606411591826882,1,-1,-3,-8,0,1,-3,-1
1606411591826882,-2,4,-8,-4,2,5,-1,-3
1606411591828877,0,0,0,-1,-2,-26,-3,-1
1606411591828877,-1,-6,-5,-4,-4,-1,3,3
1606411591857800,-1,-1,1,4,-2,-2,-4,0
1606411591857800,-1,3,1,-12,-6,-9,1,0
1606411591858797,0,-6,-7,-8,4,1,-4,0
1606411591858797,0,-5,5,14,1,6,-3,-2
1606411591863781,1,4,0,-2,2,-42,-5,0
1606411591863781,2,5,10,-15,-1,52,13,0
1606411591872756,2,-3,-7,3,-7,-29,-7,0
1606411591872756,-4,-7,-26,7,2,-4,4,0
1606411591886721,1,7,28,2,2,30,1,-1
1606411591886721,-7,1,-2,-8,-1,-49,-6,-5
1606411591893700,4,2,-10,6,11,50,8,5
1606411591893700,-2,1,31,-9,-7,2,-4,1
1606411591909657,-2,-4,-25,-5,-4,-6,0,-1
1606411591909657,-3,0,-2,-8,-4,-4,-2,-4
1606411591911652,-2,7,6,29,1,8,-3,-1
1606411591911652,1,-2,-12,-18,-4,-16,-1,1
1606411591923619,-1,-7,12,8,-6,9,1,-1
1606411591923619,1,6,10,-8,2,-6,4,0
1606411591932597,-4,-10,-11,-14,-3,-5,-4,-2
1606411591932597,0,-5,2,-4,-1,13,0,-1
1606411591954538,-2,3,-6,41,2,-42,-5,-1
1606411591954538,1,-2,-12,5,1,22,4,2
1606411591956534,4,0,2,-4,1,-5,-5,-1
1606411591956534,2,-2,-25,-15,-6,-1,-4,-1
1606411591969497,-1,-3,-27,-20,6,5,-1,-2
1606411591969497,-4,2,30,29,-1,-26,-1,-4
1606411591971491,6,1,-13,15,-1,28,3,2
1606411591971491,-3,-2,8,19,4,-23,-4,-4
1606411591992436,2,-9,-20,-57,-1,30,1,-2
1606411591992436,11,5,-7,1,-10,-14,6,3
1606411592007399,-6,-15,-28,-26,3,-4,0,-3
1606411592007399,-1,11,18,-11,-11,-11,-2,1
1606411592008471,4,-7,-5,14,4,29,-4,-2
1606411592008471,3,14,8,1,2,-4,-3,0
1606411592013379,-3,-15,-2,-19,-4,-2,-1,1
1606411592013379,0,9,13,30,10,-29,-3,-1
1606411592029337,-3,6,-31,-41,-8,17,6,-1
1606411592029337,-4,-2,3,14,5,19,2,-3
1606411592031332,-1,-2,23,20,0,-4,-6,-2
1606411592031332,-9,-10,-20,-44,-3,-12,-1,-3
1606411592052275,-3,7,5,19,-6,3,-5,-3
1606411592052275,-7,-18,2,3,2,0,3,1
1606411592054270,-3,0,42,-22,0,-11,-5,0
1606411592054270,-1,-11,2,32,-5,19,2,1
1606411592066238,1,9,43,10,8,-11,-2,-2
1606411592066238,6,2,-28,-23,-1,10,-2,-3
1606411592073222,-1,-5,1,50,4,-6,-2,2
1606411592073222,-19,-7,4,-5,0,2,1,-4
1606411592090174,1,2,1,0,-6,-5,-5,-5
1606411592090174,6,23,23,2,-2,-39,2,2
1606411592091172,-6,-25,-76,-28,-4,18,2,-2
1606411592091172,-8,9,46,18,-1,11,5,0
1606411592112119,-19,-17,-12,19,-6,-22,-9,-3
1606411592112119,3,8,2,2,3,15,-4,-5
1606411592114121,2,-17,-36,-49,-3,-9,-4,-6
1606411592114121,9,19,-24,26,6,6,-1,3
1606411592135055,-19,-12,3,11,-8,-8,-1,-8
1606411592135055,-1,-12,2,8,12,8,8,15
1606411592136052,-3,14,21,-9,-21,-12,-6,-3
1606411592136052,11,-20,-12,-16,4,13,1,-3
1606411592150017,8,12,21,17,3,-5,6,1
1606411592150017,-12,-2,-7,-15,-2,6,-5,-2
1606411592151015,0,1,14,1,3,-6,0,6
1606411592151015,-1,-10,5,2,1,-3,-4,-2
1606411592171956,19,19,-11,-33,-7,-1,2,4
1606411592171956,-22,-11,-5,8,-8,4,-1,-6
1606411592173951,2,1,13,6,2,-2,-2,-1
1606411592173951,-1,2,-10,-12,-3,-1,-4,-3
1606411592185920,-13,5,1,6,2,3,6,0
1606411592185920,15,-3,-8,-7,-4,7,-3,-5
1606411592194899,17,0,11,8,2,-5,0,10
1606411592194899,-15,-15,-13,-7,4,4,1,-6
1606411592209855,0,-3,0,-1,-5,2,-1,-1
1606411592209855,-13,-1,-1,4,-3,-4,-6,-3
1606411592211851,-3,-13,4,-8,-2,-5,-2,-2
1606411592211851,13,7,-2,-4,-1,3,0,1
1606411592232797,11,-6,5,2,2,3,5,4
1606411592232797,9,10,-5,-2,-4,-1,-5,-5
1606411592233794,-70,-5,5,9,2,-1,1,1
1606411592233794,17,9,-9,-9,-4,-1,-2,-1
1606411592245759,23,14,16,0,-6,-4,-2,0
1606411592245759,-5,-15,-9,2,1,2,-1,-1
1606411592254744,12,-10,-7,-2,1,-3,0,2
1606411592254744,-1,1,8,3,0,-3,-4,-2
1606411592269695,-30,5,-7,-5,1,2,1,-3
1606411592269695,1,-12,1,1,3,-1,0,5
1606411592271690,16,6,20,2,2,-2,-4,-2
1606411592271690,-1,2,-20,-8,-12,1,3,2
1606411592292635,6,2,0,6,3,2,1,-3
1606411592292635,0,5,1,-3,-3,1,-1,0
1606411592293633,1,-9,9,2,1,-2,0,0
1606411592293633,2,9,-2,-2,1,1,0,-3
1606411592305600,-3,0,-1,0,-2,-1,1,-1
1606411592305600,1,-6,-12,-2,-6,-1,-2,-1
1606411592314577,-1,0,4,-1,0,-2,0,-1
1606411592314577,-17,1,-8,-3,-3,-3,-1,-3
1606411592329538,6,-1,19,-2,0,2,-2,0
1606411592329538,-1,3,2,-9,1,1,-9,-5
1606411592331533,6,-3,-8,4,-7,-4,7,5
1606411592331533,-3,-1,16,9,3,0,-3,-1
1606411592352475,-7,-4,-9,1,0,0,-2,-3
1606411592352475,-3,-2,-3,-2,-1,0,0,3
1606411592353472,1,3,1,-5,1,-2,-9,-4
1606411592353472,24,8,6,-2,-2,2,0,-1
1606411592365439,-1,-9,-34,-1,1,-3,-1,0
1606411592365439,2,-11,5,3,2,0,1,-2
1606411592374415,-8,-1,-3,0,2,-2,-1,-1
1606411592374415,1,-6,-2,-1,1,0,2,-1
1606411592389374,-3,2,1,-1,1,-1,-2,-2
1606411592389374,9,11,9,5,4,1,-2,-1
1606411592391369,-4,-9,-4,-3,-5,-2,0,1
1606411592391369,-5,2,-3,-1,0,-1,-1,-3
1606411592412316,22,3,0,-2,-5,-1,0,3
1606411592412316,-8,1,-2,3,-1,0,3,-2
1606411592414308,2,0,2,-2,3,-1,0,1
1606411592414308,0,5,0,-5,-3,-3,-1,1
1606411592426276,1,3,-6,0,1,2,3,-1
1606411592426276,-7,3,13,1,-5,-1,-3,-7
1606411592435252,9,-4,-2,-1,0,-3,-3,1
1606411592435252,-8,-4,-6,-4,-2,-1,0,-3
1606411592450212,8,5,1,0,1,1,-1,3
1606411592450212,-6,-1,1,-1,-1,2,1,-2
1606411592451209,3,-10,-1,-2,1,-1,-7,1
1606411592451209,-21,-4,-4,-1,1,-3,1,-5
1606411592472153,-9,-2,6,0,-1,0,3,-1
1606411592472153,3,-3,-5,-2,-1,1,-3,0
1606411592474148,2,-6,-1,0,0,0,0,0
1606411592474148,0,-3,-1,-2,0,-2,-2,0
1606411592486119,-4,0,2,-1,-2,-4,-1,-3
1606411592486119,0,4,-10,-2,-1,-4,1,1
1606411592495094,-14,-10,7,0,4,-3,-4,-5
1606411592495094,-1,5,1,0,-3,4,2,-3
1606411592510052,-4,3,-3,-4,-1,2,-5,-4
1606411592510052,-3,1,-4,3,1,-2,2,-1
1606411592511071,2,0,-1,0,2,-4,-1,-2
1606411592511071,-12,-3,-1,-1,-1,0,-2,-3
1606411592531997,12,-2,0,-1,-2,0,4,10
1606411592531997,8,6,-4,-4,-1,0,0,0
1606411592533990,0,0,5,-1,2,-2,-4,0
1606411592533990,3,2,-1,2,0,0,-2,2
1606411592545959,-2,2,10,1,1,0,-3,-3
1606411592545959,-5,-13,-8,-24,-14,-2,-1,-4
1606411592560918,8,12,-3,18,0,0,-2,-5
1606411592560918,5,-5,-6,-7,-4,-2,-1,0
1606411592569892,-13,3,22,5,1,-1,0,-6
1606411592569892,-15,2,-1,-2,-1,-1,-2,5
1606411592570889,10,-6,-7,-7,-2,0,-2,-4
1606411592570889,6,-6,1,4,1,1,2,0
1606411592591834,-2,0,-11,-2,-3,-2,-1,-2
1606411592591834,-4,2,-1,3,1,2,2,-2
1606411592593831,9,-8,-4,-5,-3,0,-1,11
1606411592593831,-2,3,3,3,0,-1,-1,-4
1606411592605797,-8,-1,-7,-4,-2,-2,-3,-2
1606411592605797,17,-5,-1,2,-2,2,-1,-1
1606411592620757,-12,-1,2,-3,0,-3,-1,-3
1606411592620757,7,0,-1,1,-1,-2,-2,3
1606411592629732,-15,-8,-4,-1,-1,-1,-6,-4
1606411592629732,2,-3,0,4,1,1,3,1
1606411592631728,13,-2,-1,-3,-1,0,1,4
1606411592631728,-18,15,12,-3,-1,-1,-1,3
1606411592652673,-18,-26,-23,-1,-3,1,-1,-6
1606411592652673,24,5,3,2,0,-4,-3,5
1606411592653671,-6,-11,-2,0,-1,0,-6,-4
1606411592653671,15,4,2,-20,-13,-2,4,0
1606411592665637,-2,-6,-4,19,4,1,3,0
1606411592665637,-10,8,-7,-7,-2,-1,-3,-5
1606411592674612,-2,-12,-11,1,2,-4,0,2
1606411592674612,4,1,-4,-1,-2,-1,-2,-1
1606411592689574,8,15,2,-4,-3,1,2,2
1606411592689574,-15,-16,-1,3,4,-1,1,-4
1606411592691572,2,3,4,-2,-3,-3,-1,1
1606411592691572,-8,-2,-7,2,-1,-2,-7,-7
1606411592712513,-1,5,3,-3,-5,1,4,0
1606411592712513,14,3,1,3,1,0,1,-3
1606411592713511,-4,12,-2,-3,0,-3,-4,-1
1606411592713511,-8,-7,-3,3,-1,0,3,-2
1606411592725477,-1,-2,1,0,2,-1,-7,2
1606411592725477,5,3,10,0,-3,-1,-1,-3
1606411592734455,-3,-4,-7,-4,-2,-1,0,-2
1606411592734455,13,-2,-3,14,5,3,0,2
1606411592749412,5,19,16,-9,-8,-2,1,-5
1606411592749412,-2,5,3,7,5,2,-2,1
1606411592756412,-10,-14,-5,-14,-6,-4,-1,-1
1606411592756412,2,2,3,4,3,0,1,1
1606411592772353,13,1,-2,-1,2,1,2,2
1606411592772353,-20,-3,-4,1,1,1,1,-4
1606411592774349,22,7,0,-6,2,2,0,0
1606411592774349,7,12,-5,10,1,-1,1,7
1606411592786316,-2,-3,-1,-2,-3,-1,-1,-4
1606411592786316,6,1,-6,-2,-2,-2,-3,-1
1606411592795289,-11,-10,-3,3,3,-4,-1,0
1606411592795289,7,-3,0,-11,-5,-1,-6,-4
1606411592809252,-3,3,-2,4,5,-2,13,0
1606411592809252,-9,0,0,-6,-13,-1,-6,-1
1606411592816236,8,-6,3,1,1,-1,1,6
1606411592816236,11,3,1,-2,1,-2,-12,-4
1606411592840169,-29,-11,-4,0,-2,-3,2,-4
1606411592840169,15,7,-6,-5,-2,-1,-2,2
1606411592841167,-11,-2,-3,-1,1,-4,0,-3
1606411592841167,-10,5,7,1,0,-2,1,2
1606411592846156,-31,-20,-5,0,-1,3,-3,-4
1606411592846156,-1,3,1,-19,-1,1,0,-1
1606411592855136,-5,-12,-5,13,-2,-1,-6,-3
1606411592855136,-7,2,1,-7,-1,-2,1,1
1606411592869094,4,6,-2,-2,-3,1,13,3
1606411592869094,-5,0,-2,1,1,-2,2,-1
1606411592876075,-19,-10,8,4,5,-1,-1,-4
1606411592876075,-4,-3,-28,-7,-3,1,6,8
1606411592892034,17,10,16,-4,0,0,-4,0
1606411592892034,-3,9,-2,13,0,-1,-1,-2
1606411592894029,-7,-6,-2,-3,2,1,-2,1
1606411592894029,7,4,9,-12,-3,1,3,-5
1606411592914971,-1,-2,-3,6,-7,-2,-6,-3
1606411592914971,8,-3,0,2,2,-1,2,5
1606411592915970,-2,3,6,-5,-1,-1,-4,-4
1606411592915970,0,-5,-6,3,3,0,3,-4
1606411592928934,-6,-4,7,-6,0,-1,-5,0
1606411592928934,4,-1,-15,-1,-2,-2,-4,-3
1606411592935914,5,-4,-1,3,-1,-1,1,5
1606411592935914,-11,-13,-1,0,-1,-3,8,-4
1606411592951873,33,16,-3,-8,-2,1,-8,3
1606411592951873,-16,-2,6,9,1,1,-4,1
1606411592953871,11,2,-2,-3,-1,-1,-5,0
1606411592953871,-4,-6,0,5,-2,-1,1,-3
1606411592974810,-15,-5,-11,5,6,-1,-2,-1
1606411592974810,-6,-3,2,-16,-8,-3,-4,-1
1606411592976805,4,-4,-4,-3,1,0,0,0
1606411592976805,-2,8,4,1,0,0,-4,-7
1606411592997756,17,8,-6,2,-2,0,0,-1
1606411592997756,19,9,0,-1,2,0,1,-1
1606411592998752,-8,-3,7,12,-1,-2,0,-3
1606411592998752,5,3,0,-2,-2,2,2,1
1606411593012709,3,4,-5,1,2,0,-4,-3
1606411593012709,-7,-8,-2,-7,-2,-1,1,0
1606411593013706,0,-11,1,-5,-2,-4,-3,2
1606411593013706,-5,4,0,2,-3,2,0,-1
1606411593034651,5,5,-2,-2,-3,1,-2,0
1606411593034651,-7,-7,1,2,1,0,1,-2
1606411593036646,-9,-6,-6,-4,-1,-2,1,-2
1606411593036646,-5,-7,0,-2,0,0,-3,-1
1606411593048615,-8,-1,-2,-1,0,0,1,-3
1606411593048615,2,-4,7,-3,-8,-1,-1,0
1606411593057589,1,0,-2,1,2,-1,-2,1
1606411593057589,0,2,-5,-7,0,-1,-6,-5
1606411593072551,1,5,5,20,2,5,4,2
1606411593072551,-1,-6,-2,-3,0,-2,-1,-3
1606411593073549,-12,-1,1,-5,-2,0,1,-6
1606411593073549,2,9,3,10,0,0,3,-1
1606411593094491,-16,-2,2,2,0,-2,-9,2
1606411593094491,-1,-5,-7,1,5,-2,1,5
1606411593096485,5,0,-2,-11,-10,-2,4,4
1606411593096485,-5,-4,-3,1,-1,0,-2,-16
1606411593109450,4,6,-1,-8,-7,-1,-1,9
1606411593109450,-9,-4,1,2,2,-3,1,-2
1606411593115436,4,-4,-2,4,-2,0,-2,-6
1606411593115436,-3,5,1,0,1,0,-2,-4
1606411593132388,5,0,-2,-8,-2,-1,-1,2
1606411593132388,0,8,-4,2,1,0,-3,2
1606411593133386,-3,-5,-1,-7,-1,-1,-4,-6
1606411593133386,-1,-2,-2,-7,-6,-3,-2,-4
1606411593154329,0,-2,-3,-22,2,2,5,19
1606411593154329,-2,-12,-11,2,3,0,0,6
1606411593156324,1,3,12,10,-8,-6,-2,-3
1606411593156324,1,5,-4,0,8,1,2,-2
1606411593168293,-1,-2,2,-9,1,12,0,-10
1606411593168293,-2,-6,-19,-13,11,-9,-6,-1
1606411593177269,2,9,6,25,4,27,3,-10
1606411593177269,-3,-14,-33,-4,-21,-27,-4,21
1606411593192228,-1,-7,9,-13,-24,-4,1,-9
1606411593192228,-5,-3,20,-14,7,24,-4,-7
1606411593194223,-2,-14,-33,-29,-7,-58,-12,-3
1606411593194223,1,11,9,-37,3,42,9,-1
1606411593215170,2,8,20,34,-2,3,-2,-2
1606411593215170,-7,-19,-6,-27,-26,-69,-9,-3
1606411593216165,1,11,6,21,2,87,8,6
1606411593216165,-2,-12,-3,-9,-13,-30,-7,6
1606411593228135,2,9,-11,-50,19,10,1,-8
1606411593228135,-3,7,49,116,42,14,3,-4
1606411593237113,-2,-4,-27,-81,-5,-35,-5,4
1606411593237113,-1,-11,-9,5,-22,-18,-4,2
1606411593252070,2,10,10,28,-4,32,-9,-9
1606411593252070,1,0,-8,16,4,-19,-4,0
1606411593254065,-1,-7,5,6,17,18,22,12
1606411593254065,-3,2,14,10,6,5,-13,-8
1606411593275009,-3,-4,-15,-24,-12,-46,1,-4
1606411593275009,0,-10,-11,-4,-14,-14,-23,3
1606411593276009,1,-2,5,2,-8,-18,-4,1
1606411593276009,-1,6,5,-24,-5,21,4,-4
1606411593287975,0,-3,-3,54,-1,-55,-7,2
1606411593287975,1,-2,-15,-63,-2,31,20,2
1606411593297948,-1,2,12,47,8,63,3,-1
1606411593297948,-2,-10,-2,-8,0,-3,-2,-3
1606411593311910,-2,-7,-6,-19,2,-54,-14,-3
1606411593311910,0,2,-2,-7,-8,31,12,-1
1606411593313904,-2,-8,0,-1,-11,-78,-8,0
1606411593313904,1,11,5,14,26,73,18,1
1606411593334849,-2,0,-5,3,1,-11,-4,-2
1606411593334849,-1,0,2,-13,-18,10,-4,1
1606411593336845,-3,-7,-11,-4,6,-7,-4,-3
1606411593336845,-3,-8,3,13,-14,-66,-20,-6
1606411593348812,-1,9,-2,0,12,89,8,-1
1606411593348812,3,9,12,16,9,42,23,6
1606411593357788,-1,5,-5,-30,15,35,-5,-2
1606411593357788,1,-3,8,31,10,-11,1,-1
1606411593372746,-5,-13,7,14,-27,-34,-4,-5
1606411593372746,-4,-12,-27,-49,-29,-14,-12,-3
1606411593373743,-2,1,21,32,-3,-1,-8,-4
1606411593373743,-1,5,-13,-39,-7,-87,-1,1
1606411593395690,1,5,-6,25,8,68,15,2
1606411593395690,-2,-9,-4,-46,2,-5,-14,-3
1606411593396687,-1,-1,-1,5,-16,-6,9,1
1606411593396687,-2,-2,14,16,-5,-6,-8,0
1606411593408651,2,-3,-33,-39,-7,-20,2,-2
1606411593408651,-3,2,14,10,8,16,0,-3
1606411593417626,1,-4,-7,-14,-5,-52,-12,-1
1606411593417626,-4,10,9,25,7,28,4,0
1606411593432586,-4,-1,-12,-9,11,-26,3,0
1606411593432586,-6,0,20,47,-7,61,7,-1
1606411593433585,17,17,6,17,4,-6,-7,-4
1606411593433585,1,-5,-5,11,13,-10,-5,-1
1606411593454529,4,3,-5,-36,-14,9,3,-1
1606411593454529,-3,-3,9,15,-13,-60,-11,-4
1606411593456526,-4,-5,-10,-7,10,27,2,1
1606411593456526,-1,2,5,2,-3,22,0,-2
1606411593468491,-1,4,11,11,0,-6,-5,-1
1606411593468491,2,-1,-12,-22,6,-22,-1,0
1606411593477466,0,-5,0,-3,-1,20,-1,0
1606411593477466,1,0,-9,-33,-8,-5,2,0
1606411593492426,-9,-2,5,51,9,1,-4,-2
1606411593492426,5,-4,3,-2,-1,-15,-2,2
1606411593493423,-6,-16,-16,-9,-10,-16,-1,0
1606411593493423,-1,1,-2,-8,1,16,7,1
1606411593514369,2,5,9,-12,6,-2,0,-3
1606411593514369,0,-3,-1,9,-5,-5,-2,0
1606411593516362,-9,-3,12,43,7,-9,0,-8
1606411593516362,19,0,-3,-4,4,6,-12,5
1606411593528332,0,2,7,-41,-12,15,3,0
1606411593528332,-4,-5,-7,31,10,-11,1,1
1606411593537306,-5,-9,-9,-19,-4,-2,0,-1
1606411593537306,-5,1,11,11,6,4,-6,-1
1606411593552268,-1,-2,-7,-15,0,-1,10,-3
1606411593552268,0,6,-1,1,7,0,-14,-2
1606411593554282,7,0,-4,-3,-9,-8,34,5
1606411593554282,-4,0,-4,-16,-2,12,-4,-5
1606411593575204,1,2,-1,-3,0,0,-2,0
1606411593575204,-4,-2,4,26,-1,-12,-1,-3
1606411593576202,-3,-10,-23,-71,-5,1,-10,1
1606411593576202,-4,-1,10,14,-3,0,9,-2
1606411593588172,1,6,-1,-5,-1,2,-2,1
1606411593588172,-3,-5,1,3,4,-4,2,-2
1606411593605124,-2,-4,11,-11,-4,-4,-7,0
1606411593605124,-6,2,-17,-1,-1,5,7,-2
1606411593611111,1,2,7,22,5,-5,-11,-8
1606411593611111,-3,-6,-5,-26,-4,-1,0,5
1606411593618090,-1,-7,0,-2,5,-3,-10,-1
1606411593618090,-4,1,-6,5,-9,-2,4,-3
1606411593642026,-7,3,5,18,6,6,-18,1
1606411593642026,3,-3,-12,-23,0,-4,2,1
1606411593644021,-2,-4,4,6,-1,0,-2,1
1606411593644021,-8,-7,3,-16,2,-2,5,-4
1606411593648010,0,6,3,13,-4,0,2,-2
1606411593648010,7,7,-7,-18,1,0,-2,0
1606411593656985,1,-7,4,-3,-1,-3,-3,1
1606411593656985,3,-1,4,28,8,3,-1,2
1606411593671946,0,-2,7,-3,-3,-2,3,-1
1606411593671946,-4,-10,-10,28,4,-3,-3,0
1606411593677930,2,-7,5,-35,-4,-3,-2,1
1606411593677930,-1,0,12,34,-4,-4,-2,0
1606411593694885,-1,-10,-30,-37,4,1,0,-3
1606411593694885,-5,-13,4,33,-4,-4,-1,0
1606411593696879,-3,-4,-3,3,-2,-2,-8,-3
1606411593696879,2,-3,-6,-26,-2,1,0,0
1606411593716825,-1,0,-4,10,-7,-3,4,0
1606411593716825,-2,-5,-2,-14,16,4,-2,1
1606411593718820,-3,-3,16,54,0,0,0,-2
1606411593718820,-1,2,-18,-20,-2,3,1,-2
1606411593731786,0,4,9,-16,-6,0,4,-3
1606411593731786,-6,-14,-9,34,-1,-5,-3,-5
1606411593738767,0,1,-1,10,-4,-2,-1,-1
1606411593738767,1,5,5,-26,1,2,0,-2
1606411593754724,3,3,-18,3,-7,-1,4,-2
1606411593754724,0,-5,-1,-42,-5,-2,-10,-1
1606411593756719,-3,-2,-4,-3,3,1,12,-1
1606411593756719,-3,5,-3,1,-7,1,-5,-4
1606411593768688,-5,4,9,38,6,1,1,-2
1606411593768688,1,-2,-2,-33,-6,1,0,-3
1606411593777663,-3,-2,4,54,4,1,-3,-2
1606411593777663,4,2,0,-9,-6,-2,0,0
1606411593799604,-1,3,-2,-8,5,2,-1,-3
1606411593799604,2,-6,-13,-12,-3,-2,0,1
1606411593801599,-1,4,20,7,-1,0,-6,-1
1606411593801599,-2,0,-10,22,16,1,2,-1
1606411593814564,-1,3,4,-3,-3,1,-3,1
1606411593814564,1,-4,15,23,-2,-4,-1,-1
1606411593816559,1,-4,-46,-77,-2,3,0,-3
1606411593816559,-1,4,17,20,8,4,2,-1
1606411593828527,-1,3,-5,-5,-2,0,-2,-1
1606411593828527,-4,-6,4,-13,-3,-2,-1,3
1606411593837503,6,3,6,18,1,-3,-2,-2
1606411593837503,1,1,0,-3,-6,-4,-1,-2
1606411593859444,1,1,0,-11,-1,-2,1,-2
1606411593859444,-2,-6,-6,-9,2,0,-1,0
1606411593859444,-3,-2,4,2,-3,-3,-5,-2
1606411593859444,3,4,-4,1,-1,-2,0,-1
1606411593874405,-2,-3,-2,-32,-6,1,-6,-2
1606411593874405,0,-5,5,6,-6,-3,8,3
1606411593874405,-1,0,8,47,12,1,-5,-1
1606411593874405,-2,1,-3,-35,-6,2,0,-1
1606411593896348,-2,-3,8,42,4,-1,0,-1
1606411593896348,0,-7,-8,-19,0,-2,-5,0
1606411593897343,-2,2,-4,-6,-3,-2,0,-2
1606411593897343,0,-3,0,12,-3,2,3,-1
1606411593911306,0,4,17,15,-4,-4,-3,-1
1606411593911306,1,-7,-25,-28,0,-3,-3,0
1606411593918287,0,4,10,18,-1,0,4,0
1606411593918287,-4,0,-22,-34,-5,0,-3,-5
1606411593934244,6,1,9,42,1,-1,3,-1
1606411593934244,-2,-12,1,-28,1,-1,0,-1
1606411593935242,-4,6,1,-21,-2,-2,2,-4
1606411593935242,-2,1,3,12,1,-1,-3,1
1606411593956186,-2,1,-9,-36,-5,0,1,3
1606411593956186,3,-1,11,34,5,-4,-4,0
1606411593957184,2,-1,0,24,0,0,0,1
1606411593957184,1,0,-3,-52,-6,-1,0,-3
1606411593971146,-4,3,3,15,0,1,1,1
1606411593971146,0,-6,2,11,-1,-4,-2,-1
1606411593987106,-2,0,-7,-8,0,-2,0,0
1606411593987106,0,2,-5,3,-9,-2,-9,-2
1606411593994086,0,-1,15,1,1,3,19,5
1606411593994086,-1,-6,-12,20,-3,-1,-5,0
1606411593995083,-1,2,5,22,3,1,0,-2
1606411593995083,-3,-1,14,29,4,-2,-2,-3
1606411594017026,-1,-1,-6,-11,-7,-1,-6,-4
1606411594017026,-1,-3,5,-4,1,0,2,2
1606411594017026,-7,0,-2,-8,-1,-3,0,-3
1606411594017026,8,2,0,9,-4,1,1,0
1606411594031984,-9,-10,-7,-2,0,1,-4,-2
1606411594031984,-1,-4,12,8,5,-4,-2,-2
1606411594031984,-2,1,-6,4,2,0,-2,-2
1606411594031984,-4,0,1,-5,1,2,4,0
1606411594053928,2,-1,-5,-9,-5,-4,-4,-1
1606411594053928,-1,-3,-2,-10,2,1,-3,-1
1606411594054926,4,-2,-3,-18,-7,0,-1,0
1606411594054926,-1,-1,-4,15,2,1,3,-1
1606411594076944,1,4,-2,-3,3,1,-2,-2
1606411594076944,-4,-8,2,-3,-1,-3,-3,0
1606411594077862,0,3,-3,-15,-7,-2,0,-1
1606411594077862,-2,-1,-3,0,1,0,1,-1
1606411594091825,1,-1,-4,-8,-1,-1,-11,-5
1606411594091825,1,0,1,3,0,-3,18,4
1606411594092824,-1,-4,-5,-16,-3,-8,-4,-2
1606411594092824,4,8,6,13,3,8,3,1
1606411594113767,3,0,-9,1,10,10,3,0
1606411594113767,2,-6,-3,-1,3,4,-4,1
1606411594114762,-7,-8,-3,-16,-10,-20,7,0
1606411594114762,-2,6,3,8,-1,12,-4,-6
1606411594136704,-1,2,-8,0,10,-22,1,0
1606411594136704,0,-8,-4,-15,-11,24,-8,2
1606411594137702,4,8,1,1,9,18,0,-3
1606411594137702,-4,0,-3,4,9,-10,-5,-1
1606411594150669,-2,-8,-3,-5,-5,-26,-7,-2
1606411594150669,-3,0,-5,-6,7,14,-9,-7
1606411594158647,2,-1,5,3,1,-4,42,4
1606411594158647,-2,-1,-4,-7,-15,-19,-20,-5
1606411594173606,-2,0,0,-2,0,22,-5,2
1606411594173606,0,-10,-7,-1,-5,-26,-3,2
1606411594174603,2,9,3,-3,3,-10,-13,-5
1606411594174603,1,-1,-4,-6,3,24,15,2
1606411594204523,-5,-4,-1,-8,-11,-20,4,-2
1606411594204523,-3,-5,-1,5,-13,-23,-16,-2
1606411594205520,0,2,-4,-2,12,24,-11,-1
1606411594205520,0,9,4,2,-4,28,30,1
1606411594227463,-1,-6,-9,-10,-11,1,-14,0
1606411594227463,1,0,4,4,-1,-1,1,-1
1606411594228458,1,0,-5,-15,-10,-25,-11,-1
1606411594228458,-2,1,15,20,21,-17,-7,0
1606411594234442,1,-3,-3,4,5,24,2,0
1606411594234442,0,-1,0,2,-1,-12,9,-2
1606411594234442,-4,-6,-2,-2,0,-3,-22,-2
1606411594234442,-1,-1,-17,-27,-14,10,-5,-1
1606411594256383,-1,-2,16,7,1,-12,3,-1
1606411594256383,2,0,-1,3,5,7,-1,-2
1606411594257381,-3,2,3,22,3,7,1,-2
1606411594257381,0,-1,-6,-46,-5,-29,-4,-2
1606411594271343,1,0,-1,0,-4,43,2,3
1606411594271343,2,1,0,-13,-5,-15,7,2
1606411594278327,3,6,9,20,-4,22,6,1
1606411594278327,-4,-5,-12,9,-9,-16,-11,-7
1606411594294284,2,1,-19,-33,-4,0,23,3
1606411594294284,1,0,5,12,0,2,-3,2
1606411594295283,-2,1,-3,-15,-6,4,-4,-2
1606411594295283,-3,-10,-4,21,-13,-6,-4,-2
1606411594316223,-2,2,6,-25,2,-13,-10,-3
1606411594316223,1,-1,24,72,9,6,-10,1
1606411594317221,1,-4,-18,-38,-8,-12,0,-5
1606411594317221,1,1,5,12,-5,-1,10,0
1606411594331183,-1,-3,-5,11,2,-4,-26,-2
1606411594331183,-3,-8,-12,-40,-1,1,6,1
1606411594338165,-2,7,8,14,3,-2,2,-6
1606411594338165,0,-2,12,25,8,4,-26,3
1606411594354125,-1,-6,-16,-39,-7,-3,19,4
1606411594354125,0,-4,-2,0,-1,-5,-7,-5
1606411594355122,3,8,-4,-12,-8,0,-2,2
1606411594355122,-5,0,-1,-10,5,1,-1,-5
1606411594377061,0,-5,4,4,0,-5,-8,-2
1606411594377061,-2,-5,-6,16,2,1,8,-1
1606411594377061,0,6,6,4,-1,-1,-21,-4
1606411594377061,-3,-6,-3,-2,-3,-3,5,2
1606411594391023,-1,-8,5,16,4,-5,-4,3
1606411594391023,-1,2,1,-7,6,4,-6,-2
1606411594398007,0,0,-8,-17,-7,-2,-12,1
1606411594398007,0,3,-1,12,1,3,30,1
1606411594415958,-1,-12,-3,-9,2,-6,-23,-5
1606411594415958,-3,4,-2,-11,0,2,20,3
1606411594415958,1,0,5,23,-2,-1,-15,1
1606411594415958,4,5,-6,1,-1,3,-6,3
1606411594436901,-8,-17,3,18,6,-12,-9,-6
1606411594436901,-4,3,-12,-26,-9,-6,18,-5
1606411594436901,-1,0,12,13,3,9,-16,-4
1606411594436901,4,9,-3,-5,3,3,74,8
1606411594458842,7,-4,5,12,-1,0,27,-5
1606411594458842,1,0,-1,-2,-1,0,2,1
1606411594459839,-2,3,-8,-8,-3,5,35,-3
1606411594459839,-2,0,-3,-4,-2,-2,-8,-3
1606411594475797,-1,2,6,5,4,3,19,8
1606411594475797,0,-5,-5,-7,-2,-4,-13,-7
1606411594476794,-1,3,-2,-1,-2,1,0,3
1606411594476794,-1,-9,2,-8,1,-6,-29,-8
1606411594496741,1,-5,-3,-4,-6,-2,1,3
1606411594496741,-9,3,6,5,1,-3,-20,-2
1606411594497740,3,4,6,8,-1,1,33,0
1606411594497740,-1,-2,3,-3,-3,-6,-26,-4
1606411594510703,-5,-5,-6,1,1,-2,5,1
1606411594510703,0,-2,-3,-5,-1,3,-15,-7
1606411594518685,3,6,-1,-1,0,2,-14,16
1606411594518685,-20,-3,9,-4,-3,2,14,-1
1606411594533643,8,-12,-4,-2,-5,-10,-51,4
1606411594533643,1,4,0,-1,2,3,57,1
1606411594541621,-4,3,1,0,2,5,27,-1
1606411594541621,2,-4,-2,1,0,-9,-21,-14
1606411594556581,-4,-4,-6,-5,4,-8,-29,-3
1606411594556581,14,22,9,9,6,42,63,42
1606411594557578,-1,-11,-8,-12,-5,-14,-30,-20
1606411594557578,1,5,1,6,-2,8,20,7
1606411594570543,-3,-8,0,-6,-8,-7,16,-9
1606411594570543,-1,-9,-7,2,3,-4,-46,-6
1606411594578525,-9,4,1,-7,-4,-2,-5,-15
1606411594578525,6,-3,-3,-3,-5,3,6,5
1606411594594481,-5,-2,9,6,0,-2,-15,-1
1606411594594481,1,-4,-2,-12,-5,-10,-4,-5
1606411594594481,-3,3,2,4,-1,2,2,0
1606411594594481,-2,-2,0,1,4,-8,-29,-6
1606411594616423,-2,0,-5,0,0,3,30,10
1606411594616423,-1,-7,-8,-3,1,-7,-69,-5
1606411594617419,-2,2,-4,-8,-4,-5,13,-2
1606411594617419,5,3,-2,-2,-3,7,7,7
1606411594631384,-3,-6,-1,-3,-5,-1,-3,-3
1606411594631384,-1,-3,1,-3,-1,-3,20,-2
1606411594638362,-1,-2,-2,3,1,-3,3,3
1606411594638362,2,-2,-2,-2,0,1,13,-5
1606411594662301,0,3,0,7,1,1,-10,8
1606411594662301,-8,-4,-4,-3,-2,-12,-37,-12
1606411594663299,28,14,4,8,3,15,4,14
1606411594663299,-11,-13,-2,-2,1,-8,13,-7
1606411594676261,4,2,3,3,2,3,7,-2
1606411594676261,-1,-6,1,-2,-4,-5,-17,-3
1606411594677258,-3,-3,-7,-6,-4,-11,-12,-13
1606411594677258,2,5,4,-4,0,4,-40,8
1606411594691221,-3,-8,-7,5,2,2,16,0
1606411594691221,2,3,0,-8,-6,-1,-2,-2
1606411594699200,-9,-1,0,2,3,0,1,-4
1606411594699200,1,-5,-5,-8,-5,-3,-24,-2
1606411594722138,-6,-6,-1,-8,-4,0,7,-2
1606411594722138,0,1,-2,3,1,-2,17,-2
1606411594723136,-5,-1,-1,-1,2,0,19,1
1606411594723136,3,4,0,0,-2,1,8,-1
1606411594736101,5,-1,-1,0,-2,-9,-24,-10
1606411594736101,7,4,0,2,1,11,61,8
1606411594737098,-7,-8,-6,-6,-4,-6,-44,-4
1606411594737098,1,0,-2,2,-1,4,-28,5
1606411594751061,-3,2,2,-1,-2,-2,19,-3
1606411594751061,1,-1,-1,-2,-2,-6,-11,-6
1606411594759040,-5,-3,-2,0,-2,-3,5,-2
1606411594759040,-2,-3,-4,-2,0,3,37,-3
1606411594773999,4,-3,-2,4,2,-4,-42,-2
1606411594773999,-7,-4,1,-5,-4,-4,3,-9
1606411594781981,9,6,2,3,1,6,17,17
1606411594781981,-2,0,-4,-4,-5,-8,-17,-6
1606411594796944,0,1,4,1,3,3,-5,5
1606411594796944,-4,-5,-5,1,3,-4,-1,0
1606411594797940,-6,-4,-3,-1,-3,1,21,-6
1606411594797940,1,0,-1,2,1,-3,-3,-4
1606411594819877,-3,2,-1,-5,0,1,43,3
1606411594819877,-2,-2,-1,0,-2,-1,-7,1
1606411594820875,-8,-5,-3,1,-2,1,-1,-4
1606411594820875,-5,-4,-3,-10,-6,-5,-30,-7
1606411594833841,2,-1,-1,2,0,-2,49,9
1606411594833841,2,3,-1,6,5,6,-58,2
1606411594834840,3,5,1,0,1,1,-6,2
1606411594834840,0,3,2,0,0,1,22,-2
1606411594856781,-5,-8,-3,3,0,-8,-39,-9
1606411594856781,-3,4,-2,-7,-3,-2,36,3
1606411594857779,0,-1,2,2,3,1,-17,0
1606411594857779,1,2,0,2,1,-1,-11,1
1606411594879719,-1,-3,2,0,0,2,2,-3
1606411594879719,-3,-2,-3,1,-1,-5,7,-1
1606411594880715,-1,1,-5,-12,-6,-2,-5,-3
1606411594880715,1,4,2,4,0,-2,26,5
1606411594893682,-2,-4,2,-1,2,4,-3,0
1606411594893682,-1,-4,-1,0,-3,-2,-7,-5
1606411594894683,0,2,-1,-2,3,-3,20,0
1606411594894683,-2,0,-1,1,1,5,0,0
1606411594916621,-3,-4,-5,-12,-4,0,-17,0
1606411594916621,0,0,-3,0,1,-1,8,-3
1606411594917618,0,-1,-2,-1,-2,-1,1,-2
1606411594917618,-1,4,-1,2,2,1,-14,-1
1606411594939558,2,2,1,-5,0,1,-1,-2
1606411594939558,-2,-5,-1,1,0,-5,-8,-2
1606411594940567,0,2,3,0,-1,2,2,0
1606411594940567,-1,0,-4,1,0,-1,8,1
1606411594954519,-2,-5,-1,3,-1,-1,-11,-2
1606411594954519,-3,-1,4,0,1,-2,-2,0
1606411594954519,0,1,-5,4,-2,-1,-1,-2
1606411594954519,-2,1,3,-7,1,0,-5,0
1606411594976459,2,-4,-5,-7,4,2,4,0
1606411594976459,2,0,3,11,-4,-2,-4,0
1606411594977456,-2,-1,4,9,4,2,-5,-3
1606411594977456,-1,-2,0,17,-7,-23,1,-2
1606411594999398,-1,0,-3,-10,7,31,-2,-1
1606411594999398,-2,-3,7,7,1,-17,-3,-2
1606411595000395,-1,1,-18,-18,-2,8,-6,1
1606411595000395,0,4,-5,-8,-3,3,4,0
1606411595014360,-3,-3,7,5,6,-8,0,3
1606411595014360,0,4,3,4,2,1,-5,-1
1606411595014360,-1,-1,12,11,2,-3,-2,-2
1606411595014360,-2,-1,-9,1,-3,2,0,-2
1606411595036299,-4,-1,-8,-12,-4,-4,-1,0
1606411595036299,1,-2,3,2,1,7,-2,-2
1606411595037296,-1,1,2,-4,-4,-8,-2,-1
1606411595037296,0,2,4,-13,0,4,-1,-1
1606411595059237,-2,-6,-3,-10,-4,-8,-5,1
1606411595059237,1,4,5,5,2,3,1,-2
1606411595060238,-1,0,5,36,-1,-4,-2,-2
1606411595060238,-2,2,12,-36,-18,0,-5,-1
1606411595074197,1,-8,-21,8,20,-1,2,0
1606411595074197,-2,-2,-8,-6,-5,2,-2,-2
1606411595075195,-3,-2,8,-1,0,0,0,-1
1606411595075195,-2,5,0,-3,-8,1,2,-2
1606411595097141,-1,-2,19,3,-20,-11,-4,-1
1606411595097141,0,-3,-8,-17,-24,-2,1,-3
1606411595097141,-1,-2,-8,0,-3,-1,0,-1
1606411595097141,-1,0,-4,6,-1,2,0,-1
1606411595119080,-2,-1,8,15,3,-4,-4,-2
1606411595119080,-1,-3,-11,-15,5,5,0,0
1606411595127067,2,5,10,-3,-11,-9,-3,0
1606411595127067,-3,4,19,46,35,15,4,0
1606411595134040,0,-7,-27,-1,-7,-9,-6,0
1606411595134040,-3,-1,0,-18,-7,-3,-3,-4
1606411595135038,-1,0,-20,-28,-8,-4,0,1
1606411595135038,-1,-2,13,10,3,-1,-3,0
1606411595156978,0,-2,2,4,-1,0,-1,0
1606411595156978,0,0,8,2,29,3,1,-2
1606411595156978,1,-4,7,1,-13,-1,-2,0
1606411595156978,0,-2,-3,5,-2,-1,0,-1
1606411595178920,-1,-5,-8,-8,-2,1,0,-1
1606411595178920,-2,-3,-9,-12,-14,-6,-3,-1
1606411595179918,-1,2,0,3,2,3,0,-1
1606411595179918,0,1,8,-1,2,-2,-1,-2
1606411595193882,0,-2,-18,-3,-1,-3,-2,2
1606411595193882,-1,-3,0,-1,-9,-3,-5,2
1606411595194877,-2,1,9,-4,7,7,2,-3
1606411595194877,1,2,-40,-26,-9,-2,-1,0
1606411595216817,2,-3,31,2,-8,2,-3,-1
1606411595216817,-2,2,-6,14,7,-6,-2,1
1606411595217815,-2,2,0,11,6,8,2,-3
1606411595217815,1,-2,-28,-33,-10,-6,0,0
1606411595238761,-2,-4,26,12,10,-1,0,-3
1606411595238761,-2,-1,0,-8,-5,-3,2,-2
1606411595239760,3,0,1,7,2,-1,-1,2
1606411595239760,-1,0,-18,-16,-2,3,3,-4
1606411595253720,-1,-3,-6,3,4,-5,-3,0
1606411595253720,-2,-5,-19,-24,-5,-1,-3,-2
1606411595254719,-1,5,19,27,2,-2,-2,-2
1606411595254719,-1,4,-1,-2,0,-1,-2,-1
1606411595276659,0,-4,0,-14,0,4,2,4
1606411595276659,-1,-5,-21,-9,-5,1,1,-1
1606411595277656,-2,3,22,-1,7,3,2,-2
1606411595277656,0,6,2,17,1,-1,-1,-3
1606411595307574,-1,-3,9,10,-1,-3,3,-1
1606411595307574,-2,-2,5,-7,3,0,0,0
1606411595308572,-2,0,-5,11,-2,0,-1,-4
1606411595308572,-2,1,-7,-5,-7,2,3,-3
1606411595313561,1,-3,7,-13,-1,-4,-5,0
1606411595313561,0,-1,26,35,0,-1,-2,1
1606411595314556,1,0,-16,-24,-1,-2,-5,0
1606411595314556,1,10,19,5,1,3,10,2
1606411595338493,-3,-10,-32,-6,-3,-3,-3,-2
1606411595338493,2,-3,-6,-4,1,2,-1,-2
1606411595338493,-3,1,-8,12,0,-3,2,-3
1606411595338493,-2,0,-10,-19,-8,-3,-3,-2
1606411595359438,1,0,31,47,13,5,1,2
1606411595359438,2,-3,-24,-20,0,-5,-4,2
1606411595359438,0,-2,-10,-44,-3,1,2,-1
1606411595359438,-4,1,21,12,-2,0,0,-1
1606411595374394,-3,-7,-1,-8,-3,-3,-3,1
1606411595374394,-6,-1,-4,9,3,-2,-6,-3
1606411595374394,6,4,7,-3,4,4,4,2
1606411595374394,-2,-1,-3,13,-2,0,-3,-2
1606411595404317,-1,0,5,7,7,-5,-2,2
1606411595404317,-2,-2,6,-6,-6,1,-2,2
1606411595405313,-4,1,-12,9,-2,-3,-2,-2
1606411595405313,3,6,21,5,3,0,-5,-3
1606411595419277,-2,-7,-12,-23,-3,-6,-4,-2
1606411595419277,0,1,-7,53,7,4,4,0
1606411595420276,1,1,7,-56,-9,-1,0,0
1606411595420276,-2,1,9,20,2,2,-2,-2
1606411595433248,3,2,-18,-26,-5,-8,-6,2
1606411595433248,-4,-3,23,-4,9,3,3,-1
1606411595441216,-1,0,-23,5,-6,-3,0,-1
1606411595441216,0,-1,14,2,-5,-2,-8,0
1606411595458171,-3,-11,-27,-25,-1,-3,-4,1
1606411595458171,-3,3,14,12,-2,0,1,-3
1606411595458171,-2,-1,-5,10,2,3,-1,-1
1606411595458171,2,2,-1,-11,-2,-1,-2,0
1606411595479115,-1,-3,5,10,1,0,0,-1
1606411595479115,1,-1,-5,-4,-6,-4,0,-5
1606411595486096,-6,-5,11,13,-2,-2,-9,2
1606411595486096,6,-6,-14,9,2,-3,6,-1
1606411595493078,-2,-8,10,-2,-3,-1,-9,3
1606411595493078,4,-2,-10,-21,2,2,3,1
1606411595502053,-2,2,-6,1,3,-1,2,-1
1606411595502053,-3,-6,-4,-12,2,0,6,1
1606411595517014,1,-9,-2,6,1,-2,13,6
1606411595517014,0,-5,3,4,-4,-3,2,2
1606411595517014,2,-5,-2,-6,4,-1,-2,-1
1606411595517014,-1,-6,-21,-4,1,-4,-6,3
1606411595538955,-1,-13,-12,-48,-2,-3,-2,-1
1606411595538955,0,0,-2,9,-7,-2,-6,1
1606411595539952,2,3,2,6,3,-1,1,2
1606411595539952,-5,-9,14,25,7,-3,-4,0
1606411595552918,-1,-9,1,23,5,-3,-5,0
1606411595552918,3,-3,6,-29,-8,-1,-2,-2
1606411595561893,-3,-4,-21,-38,-4,-2,-4,-4
1606411595561893,-2,-1,-2,2,1,0,0,-2
1606411595576853,-6,-6,9,25,5,-3,-3,0
1606411595576853,-7,-7,1,18,2,-6,1,0
1606411595576853,-3,0,5,5,-2,-1,0,-2
1606411595576853,0,-6,-21,-16,2,-1,-5,0
1606411595598795,-2,-7,3,7,-3,0,-6,-2
1606411595598795,-5,5,3,-14,1,-1,1,0
1606411595599792,4,2,-4,9,1,-1,3,0
1606411595599792,-1,0,-2,-11,-4,1,-2,0
1606411595613756,-3,-6,-18,-26,-6,-2,1,0
1606411595613756,-1,3,6,31,7,-2,2,-1
1606411595621734,-2,-2,3,5,1,-2,0,0
1606411595621734,-1,-3,2,-13,-7,0,-4,1
1606411595636694,-1,-1,-7,-14,-3,0,2,2
1606411595636694,-9,-7,8,33,5,0,-4,-3
1606411595637692,-1,4,15,-2,-2,-1,1,-3
1606411595637692,11,0,-9,-22,0,0,7,-1
1606411595658635,1,-2,10,38,0,-3,-2,-1
1606411595658635,4,4,2,0,2,3,-5,-1
1606411595659633,-3,1,15,-21,-1,-1,-1,-2
1606411595659633,-8,-10,-39,-1,-5,-2,-3,-1
1606411595673595,4,4,26,11,0,0,1,-3
1606411595673595,5,2,-12,-26,7,-1,-3,-3
1606411595681576,2,0,-7,7,-1,0,-10,-4
1606411595681576,-2,4,11,-4,2,1,17,3
1606411595696541,-1,-6,1,14,1,-3,-5,-1
1606411595696541,-1,0,-22,-4,-7,-3,-2,-1
1606411595697532,-4,-2,-10,-6,1,0,1,-1
1606411595697532,5,5,2,-13,-2,-2,-4,-1
1606411595719472,1,-3,6,27,0,-1,-3,-1
1606411595719472,2,2,-2,-18,-4,3,1,0
1606411595719472,-3,1,3,1,1,-1,2,1
1606411595719472,-6,-4,20,26,3,-2,-5,-1
1606411595742411,1,1,-37,-44,-2,-1,1,1
1606411595742411,-3,-2,5,-16,-7,-1,-2,-1
1606411595743408,7,1,-15,9,2,1,3,-2
1606411595743408,0,-6,-1,-6,-4,-5,-5,1
1606411595756373,-4,-3,6,17,-1,1,-3,-2
1606411595756373,-4,1,-9,-1,2,2,1,-4
1606411595757371,-4,-2,-8,8,-2,-2,0,1
1606411595757371,0,-5,28,17,4,0,-3,-3
1606411595779312,-1,-9,-38,-41,-7,-3,-1,0
1606411595779312,1,3,12,-4,-3,1,0,-1
1606411595780310,-3,3,5,8,-3,0,1,1
1606411595780310,-2,-6,-4,-2,3,-3,-7,1
1606411595802251,3,0,8,14,0,0,9,-1
1606411595802251,-1,1,8,-11,-5,-1,7,-3
1606411595803248,-6,2,2,6,-3,-1,-3,1
1606411595803248,4,-5,-8,10,-1,-2,-5,-1
1606411595816213,2,-1,15,-24,-2,-1,-4,0
1606411595816213,4,2,0,35,0,-1,2,2
1606411595817211,-6,0,-1,-11,-1,0,-5,-2
1606411595817211,-5,-3,0,21,1,-1,3,0
1606411595840149,4,-2,9,-1,3,0,-2,-4
1606411595840149,1,4,-1,-14,-4,-1,-4,-2
1606411595840149,1,-2,-17,-19,0,0,0,0
1606411595840149,-2,-7,-9,-3,3,0,-1,0
1606411595862094,-9,-1,3,-3,-5,-1,0,-4
1606411595862094,4,-5,-7,-3,1,-1,0,1
1606411595863088,1,1,-1,-16,-1,-1,2,-2
1606411595863088,-5,-9,-4,24,2,0,-1,-1
1606411595877052,1,-4,1,9,1,-2,-7,0
1606411595877052,0,2,-9,-16,-1,2,12,-1
1606411595877052,2,-2,-13,3,-8,-2,-2,0
1606411595877052,1,0,-5,-10,0,-3,-1,0
1606411595898995,-3,-1,6,-2,0,0,-8,-1
1606411595898995,-3,3,2,7,2,-2,-6,-1
1606411595899992,1,3,-7,1,-2,2,4,-1
1606411595899992,-7,-6,-5,-24,-3,-1,-5,-3
1606411595921931,-13,-10,-3,-8,0,-1,2,-1
1606411595921931,-2,0,5,27,1,0,1,0
1606411595922928,0,1,0,4,2,1,0,1
1606411595922928,-1,-2,3,-13,-3,-1,-2,1
1606411595936891,-4,-6,-7,-3,-3,-1,0,-1
1606411595936891,10,9,-12,-11,-3,1,-2,-2
1606411595936891,-4,-1,16,31,4,0,-1,-4
1606411595936891,7,2,18,-1,-1,-2,-1,2
1606411595958835,-1,-1,-8,23,0,-1,1,0
1606411595958835,-1,-2,1,-6,-3,3,-1,0
1606411595959832,2,3,-6,-26,-6,-1,-1,-2
1606411595959832,-4,-1,4,74,10,1,0,-3
1606411595982769,4,-4,-25,-62,-5,-3,-1,0
1606411595982769,-6,0,12,36,3,-1,-5,0
1606411595982769,0,2,9,-10,-3,0,-4,-2
1606411595982769,-3,-5,-4,-9,0,0,2,0
1606411595996734,1,2,3,7,3,0,-5,-5
1606411595996734,-8,-2,-7,-11,-4,-4,5,2
1606411595997732,-2,-3,10,3,2,1,1,-2
1606411595997732,0,-2,-19,-19,-3,-3,-4,-1
1606411596018675,0,4,1,10,-2,-2,2,0
1606411596018675,2,-2,-8,-35,-4,-2,-5,-4
1606411596019671,-5,0,5,4,-2,-2,0,-3
1606411596019671,-4,-1,8,35,3,0,1,-1
1606411596049590,0,-1,-11,-9,1,-2,-1,0
1606411596049590,-1,3,9,-4,-1,1,-1,-3
1606411596050588,1,-2,-8,18,0,1,1,1
1606411596050588,-2,1,-5,-30,-4,-1,-2,-3
1606411596056573,2,2,11,3,1,-1,0,0
1606411596056573,-3,-1,4,5,-2,-3,-1,-2
1606411596057571,2,2,-4,-6,1,-1,1,-1
1606411596057571,1,-3,13,-18,-4,1,-2,0
1606411596079510,2,-7,-20,16,-1,1,-1,1
1606411596079510,-3,5,11,15,1,1,2,-1
1606411596079510,-7,-2,-10,-4,0,-2,-3,0
1606411596079510,14,5,-3,-20,-6,-4,-4,0
1606411596102448,-1,-5,-15,-9,-1,2,1,-1
1606411596102448,-4,-4,-6,-18,-1,2,0,-1
1606411596103446,1,4,8,10,-4,-1,1,-2
1606411596103446,0,-4,-4,-1,-1,-3,-1,-2
1606411596116411,-2,-2,10,-3,1,-3,-6,-3
1606411596116411,0,3,-9,-2,-4,-2,14,1
1606411596117409,-3,4,8,4,1,1,-3,-1
1606411596117409,-5,-6,-16,-21,-1,-2,-3,-1
1606411596139350,2,0,12,4,3,-1,-5,-4
1606411596139350,-1,-1,-13,5,-5,-2,-6,-2
1606411596140347,1,3,-1,1,1,2,2,0
1606411596140347,-11,-14,-2,-10,-1,-2,-5,1
1606411596169270,1,0,1,10,0,-2,3,2
1606411596169270,-1,-2,5,4,5,0,-5,-1
1606411596170267,3,2,-5,-6,-6,-1,2,1
1606411596170267,-3,-3,-6,-10,1,-1,-2,1
1606411596176251,0,-2,4,7,1,0,3,1
1606411596176251,-1,1,-3,-14,-3,-1,-2,-2
1606411596177249,-2,-1,-1,0,-1,-2,-5,-3
1606411596177249,0,-2,3,4,1,0,0,3
1606411596199189,-2,0,3,0,1,2,3,-1
1606411596199189,2,3,-5,-21,-4,-3,-1,-2
1606411596200187,-2,-2,9,51,8,6,0,-2
1606411596200187,1,-5,-10,-23,-6,-6,-1,0
1606411596222128,1,4,8,31,4,0,-2,-2
1606411596222128,-1,-2,3,-10,-2,-1,-2,1
1606411596223126,0,4,-4,-9,-1,-1,-1,0
1606411596223126,-1,-3,6,6,2,1,-1,0
1606411596236091,-2,-1,-5,-10,-6,-2,0,-1
1606411596236091,-1,-1,4,14,1,3,-2,-1
1606411596237089,-1,0,-4,-2,-2,-2,0,-2
1606411596237089,1,-1,6,-5,2,-1,-2,-1
1606411596259030,-1,1,-14,-8,-3,-2,1,-3
1606411596259030,1,4,8,12,6,0,0,-3
1606411596260027,0,-1,-2,-10,-3,-1,-1,-2
1606411596260027,-2,-6,0,-18,-3,-1,-3,-3
1606411596281968,-1,-2,13,44,3,1,0,0
1606411596281968,6,-1,-8,-21,-5,-2,0,4
1606411596282966,-7,-7,2,-4,1,-1,0,-1
1606411596282966,-2,-5,-2,2,3,0,-1,1
1606411596296931,-2,-2,0,-19,-5,-1,-2,-1
1606411596296931,-1,2,-9,15,1,1,-1,-3
1606411596296931,1,2,6,-11,-2,1,1,-1
1606411596296931,-1,-4,-3,-3,-2,-3,0,-2
1606411596318871,-2,2,-5,2,-3,-2,-3,0
1606411596318871,-19,-7,2,5,1,1,-2,-3
1606411596319868,5,1,-7,-13,-4,0,0,-2
1606411596319868,-2,-3,-2,12,2,0,0,-1
1606411596341810,-1,1,-4,-12,-2,0,-2,-1
1606411596341810,5,3,-1,2,0,0,0,-1
1606411596342807,-1,1,5,0,-1,-2,-1,0
1606411596342807,-3,-8,-18,-3,-3,-1,0,1
1606411596355771,-1,3,1,-4,-3,-2,1,-1
1606411596355771,3,-2,0,-4,-2,0,-2,-1
1606411596363752,4,5,-13,-30,-5,-2,-1,-2
1606411596363752,1,-3,18,73,7,-2,-2,1
1606411596378710,0,3,7,-13,-2,6,5,-2
1606411596378710,1,9,-9,-17,-5,-8,-1,0
1606411596379709,2,1,10,33,5,11,-2,0
1606411596379709,-2,-11,-15,-44,-4,-10,-1,0
1606411596402646,-1,-3,-5,10,0,-2,-3,-2
1606411596402646,2,-5,-3,1,-2,-11,-1,-1
1606411596402646,-3,0,-14,-33,-2,17,1,-3
1606411596402646,0,-2,9,17,0,5,1,0
1606411596415613,-2,7,3,-11,-1,5,2,0
1606411596415613,-2,1,-8,-4,3,0,-1,-2
1606411596424588,-3,-6,-1,-3,-5,-9,-3,-1
1606411596424588,-1,-3,-21,-18,0,-1,-4,-2
1606411596447527,1,11,13,-2,-1,-3,0,-2
1606411596447527,0,0,10,18,-6,4,-1,-1
1606411596448525,0,-6,0,-3,1,-7,0,-1
1606411596448525,-1,-7,-2,-18,-10,7,-2,0
1606411596462488,-1,9,-1,-2,3,-5,-2,-4
1606411596462488,0,0,-1,36,1,0,-2,0
1606411596463487,-1,-4,14,17,6,2,1,0
1606411596463487,-1,-1,28,-30,-5,-5,-3,-1
1606411596475451,-2,4,-2,13,-2,-33,-5,1
1606411596475451,-1,5,-24,-15,-2,22,3,0
1606411596484431,-3,-4,6,11,-3,-6,-3,2
1606411596484431,-1,-6,3,-10,3,-13,1,-1
1606411596499390,-2,1,-13,-8,2,31,1,-1
1606411596499390,0,-4,22,10,1,-11,-6,-1
1606411596500404,-1,0,-10,5,-4,-12,-2,-2
1606411596500404,2,-14,12,-15,-4,-14,-4,1
1606411596522327,-2,20,-19,52,3,21,-1,-3
1606411596522327,-3,-2,-19,-51,-7,2,2,-3
1606411596523324,0,-4,11,3,1,-35,-2,0
1606411596523324,-3,-8,-5,21,6,32,6,-1
1606411596536288,1,-10,-10,-68,-7,-5,1,-2
1606411596536288,-4,0,4,21,-1,6,0,-3
1606411596544267,1,-2,3,-23,-8,-14,-4,3
1606411596544267,1,5,7,9,6,-5,-5,-3
1606411596559227,3,0,-13,-22,-5,-4,2,0
1606411596559227,-2,6,-2,28,0,11,-2,-2
1606411596560228,-2,-9,20,-27,-5,-14,-2,-1
1606411596560228,-7,16,21,17,5,11,-5,2
1606411596582166,12,-4,-13,-24,-7,-3,6,0
1606411596582166,-4,-3,11,-6,4,21,0,-1
1606411596583163,-1,2,-38,26,6,7,2,-1
1606411596583163,-2,-6,-4,-1,0,-2,-3,-3
1606411596596131,2,17,6,-14,-6,-20,-6,-1
1606411596596131,2,-4,20,20,1,-9,-3,-2
1606411596604110,-3,4,-17,-31,4,12,-1,1
1606411596604110,0,-8,-10,27,0,-4,-1,-4
1606411596619070,-1,-16,-19,-28,-4,5,-3,2
1606411596619070,13,16,61,1,-4,-13,5,-1
1606411596620067,-15,-2,11,23,1,20,-6,0
1606411596620067,-2,4,-16,-34,-2,-25,-6,-5
1606411596642007,-2,-8,28,48,4,-2,2,-1
1606411596642007,-3,2,-22,-19,-1,-3,-3,-1
1606411596643004,-8,-4,3,5,2,7,6,-3
1606411596643004,-5,-4,-4,-2,-1,-6,6,5
1606411596655971,-12,-8,5,15,-2,-5,-15,-7
1606411596655971,5,11,-10,-13,4,6,18,6
1606411596663950,3,-3,-6,-7,-10,-6,-3,-5
1606411596663950,3,-6,-13,3,1,5,2,0
1606411596678908,-4,5,7,3,0,0,1,0
1606411596678908,-3,-5,-8,-3,2,-7,-2,-3
1606411596679906,5,5,-4,2,0,5,-2,3
1606411596679906,-8,-7,-4,-8,-2,0,-3,-5
1606411596701848,-9,-2,14,7,-1,4,4,9
1606411596701848,-4,13,3,-15,-5,-6,-8,-5
1606411596702849,6,-11,-15,9,-1,1,-2,4
1606411596702849,-4,9,4,4,0,1,0,1
1606411596724786,0,18,2,0,2,0,6,-5
1606411596724786,3,10,-7,-9,-1,-4,-2,-3
1606411596725783,-4,-22,-1,5,2,3,3,1
1606411596725783,0,-19,-2,-1,0,-4,-1,2
1606411596738750,6,-8,3,0,-3,1,-1,-4
1606411596738750,-8,-14,-13,-2,-2,-5,-9,-1
1606411596739746,4,24,-4,-1,0,2,-4,-1
1606411596739746,-10,-11,-7,-7,-3,-3,-3,-2
1606411596762685,0,-7,0,7,4,2,-1,-2
1606411596762685,-11,-4,-4,-12,0,-1,-3,-4
1606411596763683,-4,2,5,-12,-1,-2,0,-3
1606411596763683,6,6,-24,0,-3,0,-2,3
1606411596784626,-1,5,2,-11,-4,-2,1,0
1606411596784626,2,-6,-3,7,1,0,1,0
1606411596786622,2,13,13,-11,0,0,2,-2
1606411596786622,-1,-4,15,20,1,0,0,0
1606411596798590,0,0,2,-1,-6,-1,0,-3
1606411596798590,0,-5,-7,7,0,-1,-2,0
1606411596807563,-1,1,9,-7,-3,-2,-2,0
1606411596807563,-6,-4,0,6,1,-2,-1,0
1606411596822524,-1,0,-9,4,1,-1,1,1
1606411596822524,-1,-3,0,-3,-3,-1,0,1
1606411596823522,-1,-2,-5,4,-3,2,-2,0
1606411596823522,6,-3,-1,-2,-1,-3,-6,-2
1606411596844468,0,7,2,4,4,2,-1,-2
1606411596844468,-2,-6,-3,-12,-3,2,4,2
1606411596846463,-7,-8,-6,5,5,1,-2,-2
1606411596846463,5,-2,12,0,-3,-2,-1,1
1606411596858428,-5,-6,-15,-9,-3,-2,-4,-3
1606411596858428,12,2,-1,0,-1,0,-2,1
1606411596867404,-21,-2,-3,11,0,-1,1,-4
1606411596867404,4,3,2,-7,-3,-2,-2,-1
1606411596882363,-5,-2,6,0,-1,1,1,0
1606411596882363,-4,3,-4,0,0,-1,0,-2
1606411596884359,11,-4,-7,-1,-2,-1,-2,0
1606411596884359,9,1,-4,-7,0,0,1,3
1606411596904305,-4,-4,2,0,-1,-2,-1,-2
1606411596904305,3,1,-1,4,-2,-2,-4,-1
1606411596911289,0,1,1,-1,0,0,0,0
1606411596911289,3,-2,-3,-3,0,-2,-2,2
1606411596918267,0,0,1,-1,-3,2,3,-2
1606411596918267,-3,0,1,-10,-3,1,-4,-3
1606411596927244,8,-3,3,20,3,1,1,1
1606411596927244,-2,-6,-5,-5,0,-2,2,-1
1606411596942203,1,-1,-2,5,-1,1,-4,-2
1606411596942203,-6,-2,-3,-4,-1,-1,-2,-2
1606411596944198,7,1,10,-8,-3,-1,-8,-1
1606411596944198,5,17,-3,3,-1,-2,1,-3
1606411596965145,2,0,9,-1,1,0,3,2
1606411596965145,-3,-3,-1,4,-4,-2,-2,-1
1606411596966147,-2,-2,1,-7,-1,-1,0,-2
1606411596966147,-3,-6,2,3,2,-2,-3,0
1606411596978108,0,1,-4,-3,0,-1,-2,-4
1606411596978108,0,4,5,5,1,0,3,-2
1606411596987086,-3,-2,-6,-2,-1,-3,1,1
1606411596987086,-17,-18,-6,-6,-1,0,-2,0
1606411597002045,1,3,9,3,0,1,-5,-1
1606411597002045,1,0,-2,2,0,0,1,0
1606411597004041,-3,-2,-10,-7,-3,-2,-2,-3
1606411597004041,1,-3,-1,-2,0,-2,-2,1
1606411597024983,-2,-2,-3,1,-1,0,2,-1
1606411597024983,-1,2,2,3,-1,-3,-2,0
1606411597025982,2,-1,-2,-1,2,1,-2,4
1606411597025982,-2,-7,-2,1,0,-3,-2,-1
1606411597038946,3,0,-1,0,1,-2,-1,0
1606411597038946,2,5,-2,0,-1,0,0,-1
1606411597045926,-3,-1,1,-1,0,-5,-3,-2
1606411597045926,2,-3,-1,-3,1,-1,-2,-1
1606411597061886,3,-8,-3,-2,-4,-1,0,2
1606411597061886,-1,1,-3,-1,-1,-1,-1,-3
1606411597063881,-3,-8,-3,-1,-3,0,-2,0
1606411597063881,0,-2,-1,2,-1,1,-3,-1
1606411597084823,-4,1,3,0,2,-2,-5,-5
1606411597084823,-2,0,-21,0,1,1,8,5
1606411597086818,11,3,2,-5,-1,-1,-4,-1
1606411597086818,-7,-2,3,0,1,-1,0,-5
1606411597098787,1,2,-6,-7,-6,-1,0,1
1606411597098787,1,0,4,1,-2,-1,-4,-6
1606411597105767,1,2,0,2,-1,1,0,2
1606411597105767,2,-4,-6,0,0,-1,0,3
1606411597122739,0,1,0,-2,-1,-3,-2,-1
1606411597122739,-7,0,5,2,0,0,-3,-4
1606411597123722,-1,-5,-6,-3,-2,-1,0,-1
1606411597123722,0,-2,5,1,0,2,-1,0
1606411597144663,-2,2,-5,3,0,-1,2,-2
1606411597144663,0,-3,-2,-1,-2,-2,-1,-2
1606411597146658,-4,-3,-1,0,0,-2,-1,-2
1606411597146658,3,-2,-2,0,-2,0,-1,1
1606411597159626,-1,4,1,-1,1,-1,1,1
1606411597159626,-6,-1,0,-1,-1,1,-1,-1
1606411597165609,2,0,0,-1,0,-1,-1,-2
1606411597165609,2,0,-2,-1,-3,0,-1,-3
1606411597182565,1,10,-1,1,-1,-1,0,-1
1606411597182565,1,-1,6,0,-2,-1,-2,0
1606411597183559,-5,-4,7,-2,-1,-2,-1,0
1606411597183559,-2,0,-16,0,0,-2,0,0
1606411597204505,-1,-1,2,-1,-2,-2,-2,-2
1606411597204505,2,1,-2,3,4,1,-2,1
1606411597206501,-7,-2,4,-5,-3,2,-1,1
1606411597206501,3,0,1,0,0,-3,1,1
1606411597218469,9,-1,-2,3,-3,1,0,-2
1606411597218469,2,-1,-1,-2,3,0,0,0
1606411597227442,-5,-4,-13,-1,0,-1,-1,-2
1606411597227442,1,0,6,-3,0,-2,-1,-1
1606411597242404,0,2,-5,-2,-2,-2,-1,-1
1606411597242404,-1,2,4,-1,-2,0,0,0
1606411597248388,-2,-8,-4,-3,0,-2,-1,-2
1606411597248388,-2,-2,-1,0,-1,0,-3,-4
1606411597264346,-2,-4,2,-2,-2,-2,0,-3
1606411597264346,-1,-2,3,-2,-3,-2,1,-1
1606411597266337,2,-3,-1,3,0,-2,-2,-1
1606411597266337,-5,-1,-1,-2,-1,-1,-3,-2
1606411597278307,-3,-6,-2,1,0,-1,-2,0
1606411597278307,1,0,0,-3,-4,-3,-1,-4
1606411597287281,0,-2,-6,-3,1,0,1,0
1606411597287281,-4,-1,4,0,-1,-1,0,0
1606411597302241,-3,2,-1,0,-2,1,2,-4
1606411597302241,0,-2,3,-3,-3,0,-3,1
1606411597304236,-1,0,-17,-5,-3,0,-1,0
1606411597304236,1,0,3,6,2,-4,-1,1
1606411597325179,-4,-3,2,-7,1,1,0,-1
1606411597325179,0,0,-3,1,-2,-1,0,-3
1606411597326177,2,1,3,2,0,-3,-1,0
1606411597326177,-1,-7,0,-1,0,-1,0,0
1606411597338145,0,2,-3,2,-1,0,-2,0
1606411597338145,-6,1,2,-4,-2,2,-1,1
1606411597347123,1,0,2,-4,1,0,-2,-1
1606411597347123,-4,-3,-7,-3,-1,-2,1,-3
1606411597362084,0,2,3,4,-1,-2,-1,0
1606411597362084,-2,-1,-1,0,-2,2,-1,1
1606411597364080,-4,-4,1,-4,-4,-4,-1,1
1606411597364080,2,-1,0,-3,-1,-2,-1,0
1606411597385022,-3,-3,-4,-16,-3,-1,-1,-1
1606411597385022,0,1,-6,10,2,-2,-1,-3
1606411597386021,2,-4,4,-10,-3,0,-2,1
1606411597386021,1,3,-1,2,2,-2,0,1
1606411597397988,-2,-2,-4,-3,-1,2,-1,1
1606411597397988,-1,0,4,-2,-3,-3,0,-1
1606411597406963,0,-1,-11,-9,-2,-2,-2,-2
1606411597406963,-1,1,5,8,9,2,1,0
1606411597421924,-3,2,1,-6,-9,0,0,1
1606411597421924,-1,1,-2,-4,2,1,1,-2
1606411597423920,-3,-4,10,22,5,0,-3,-3
1606411597423920,1,-1,-2,-6,-4,-2,-1,-2
1606411597444860,-1,-3,2,28,1,-2,-3,-2
1606411597444860,-1,-1,-4,-5,7,2,1,-1
1606411597446855,-1,-4,1,8,-4,-2,-1,1
1606411597446855,-1,5,2,5,1,2,-1,-3
1606411597458826,0,5,10,20,-2,-2,-3,-1
1606411597458826,-4,-5,-14,-25,-9,-1,-2,0
1606411597467802,0,1,3,9,13,6,6,2
1606411597467802,1,1,-4,-8,-3,0,-1,0
1606411597482759,-3,-9,5,16,-4,-3,-6,-5
1606411597482759,0,9,4,-4,14,-1,-2,0
1606411597483759,-3,-4,26,-55,-16,-25,-2,-1
1606411597483759,-1,1,-8,49,4,43,4,0
1606411597504701,1,-4,-22,-57,-7,-5,0,-2
1606411597504701,-3,-7,-14,-23,-18,-6,-10,-6
1606411597506697,-3,-2,25,79,14,-17,0,-1
1606411597506697,-1,-9,-19,-54,-42,-16,-13,-2
1606411597518665,0,14,-10,-37,9,6,9,0
1606411597518665,-1,-4,-14,77,7,-1,-5,0
1606411597527640,-1,-5,-22,-74,-17,35,4,0
1606411597527640,-1,-1,4,4,28,-4,-9,-5
1606411597541603,-7,-6,-22,-25,-35,-25,-7,-3
1606411597541603,2,7,11,20,22,23,4,-1
1606411597555566,-2,-10,-12,4,0,-14,-8,1
1606411597555566,-1,3,5,3,-11,-9,6,-1
1606411597564542,0,2,2,-1,4,-3,-4,-1
1606411597564542,-2,-1,-3,-24,-15,-17,-4,-1
1606411597566540,-2,-1,-7,7,7,13,-3,-1
1606411597566540,-2,-8,-2,-53,-19,-9,-2,-3
1606411597578503,-3,-2,-8,5,2,10,1,-1
1606411597578503,0,-1,9,35,-11,-5,-7,0
1606411597587479,1,-1,7,6,-4,-22,-1,0
1606411597587479,-2,4,-2,3,-10,20,-1,-1
1606411597601441,3,4,6,12,11,3,2,1
1606411597601441,-2,-5,-3,-27,-3,1,3,-1
1606411597608423,-3,-4,-2,-11,-4,-11,-2,-2
1606411597608423,-1,3,-3,-6,11,-7,-2,-2
1606411597624380,-2,-2,9,29,22,4,0,-3
1606411597624380,-1,-1,-5,-25,-16,-15,2,1
1606411597626375,0,4,12,16,19,5,-4,-2
1606411597626375,0,-1,1,37,-11,-12,5,-2
1606411597647321,-4,-6,-7,-46,0,-10,-5,-2
1606411597647321,1,4,26,31,-1,7,-3,0
1606411597653302,-3,-8,-39,-39,-5,-3,2,-1
1606411597653302,0,1,6,15,11,-13,0,1
1606411597661281,-1,-3,-1,-22,-6,4,0,0
1606411597661281,-1,1,6,36,2,-22,-3,-3
1606411597668265,-2,-5,-3,-17,-5,24,-2,-1
1606411597668265,-1,-3,12,21,12,-35,-11,-1
1606411597685220,0,6,-5,-31,-2,11,15,2
1606411597685220,-1,5,0,-23,6,17,5,0
1606411597686214,-1,-3,-10,54,-8,-2,-3,-2
1606411597686214,-2,-2,-1,-27,0,8,1,-1
1606411597715139,1,2,6,84,16,-5,-2,-2
1606411597715139,2,-1,-3,4,-7,0,1,-2
1606411597716137,-1,-3,-5,-25,1,2,0,0
1606411597716137,-1,5,12,44,22,17,5,0
1606411597722119,0,-5,7,6,-9,-26,-3,3
1606411597722119,0,4,-15,-24,3,31,5,-3
1606411597728105,1,-2,6,7,5,-6,-6,2
1606411597728105,-2,-3,-5,-22,4,-5,0,-3
1606411597745058,-3,-3,9,7,-17,-36,-11,-2
1606411597745058,0,4,6,1,9,26,13,1
1606411597746076,-1,-6,11,2,1,-22,-6,1
1606411597746076,1,-3,-25,-11,-3,19,4,1
1606411597767001,-2,1,10,6,2,8,-1,-1
1606411597767001,-2,-5,-15,-42,-5,-31,-6,-1
1606411597768999,0,-1,6,19,-2,7,-1,-2
1606411597768999,-2,1,12,45,-6,-7,0,-2
1606411597780962,-1,1,-20,-89,-12,3,-4,-1
1606411597780962,-3,0,2,18,2,-8,0,1
1606411597789938,0,-4,5,5,-2,9,3,1
1606411597789938,-3,-4,-30,-17,-4,-16,-3,-2
1606411597804900,5,2,5,0,2,27,1,3
1606411597804900,0,3,5,22,7,6,-1,2
1606411597806897,-3,-3,-4,-29,3,-7,-3,-3
1606411597806897,0,-5,4,4,-3,-19,0,1
1606411597826840,1,8,-4,10,-3,13,3,0
1606411597826840,-1,5,8,-8,-2,-6,-1,0
1606411597828834,3,-2,4,41,5,-3,0,0
1606411597828834,-2,0,5,-54,-5,6,-2,0
1606411597840803,0,1,1,74,13,7,2,-3
1606411597840803,-3,-1,3,2,-11,-1,0,-4
1606411597849778,0,0,-19,-28,-4,-8,-4,-1
1606411597849778,10,1,2,20,4,9,1,-2
1606411597864740,-4,-1,14,-12,-3,0,0,-2
1606411597864740,0,4,-15,-13,-5,-8,-4,-3
1606411597866735,-5,-5,-2,-2,-3,5,1,-2
1606411597866735,-2,-4,4,-27,-2,-17,0,2
1606411597887678,1,8,15,93,10,34,7,-3
1606411597887678,-5,-1,-23,-20,-5,-9,-2,-3
1606411597888676,2,2,0,-21,-3,3,-1,1
1606411597888676,-4,-4,5,26,3,3,0,1
1606411597900644,-4,-1,-1,-22,-4,-9,-2,-2
1606411597900644,-2,5,-1,-5,-2,6,-1,-1
1606411597909623,0,-7,-6,-1,5,-2,2,3
1606411597909623,1,-3,0,13,1,10,1,-1
1606411597924578,-3,-4,0,7,-1,-9,0,-1
1606411597924578,-6,5,8,6,0,5,0,-3
1606411597926572,1,-9,-11,-54,-2,-6,-2,1
1606411597926572,-4,-4,9,8,-9,1,-4,-1
1606411597947517,0,-1,-5,3,-1,-2,-2,-1
1606411597947517,-2,6,8,-9,1,-1,-1,-3
1606411597948515,3,2,5,10,-2,-1,-3,-2
1606411597948515,-6,-5,-14,2,4,4,-1,-3
1606411597960484,6,-2,-12,-25,-3,-2,-2,1
1606411597960484,0,7,8,-4,-4,-3,3,-2
1606411597969458,-6,-7,-11,-6,-2,0,-3,-1
1606411597969458,0,0,16,71,9,4,-3,0
1606411597984420,-2,-2,-11,-51,-6,-7,-2,-3
1606411597984420,-3,3,5,16,-1,1,2,0
1606411597986412,16,-8,-20,-15,-1,0,-2,4
1606411597986412,-3,-1,12,-18,1,-1,1,-3
1606411598007356,-3,4,1,2,-3,-1,0,-2
1606411598007356,4,0,4,24,8,3,-1,2
1606411598009351,-6,4,19,28,0,-1,0,-3
1606411598009351,-1,-7,-8,-29,-3,-4,-2,1
1606411598021318,-1,3,-6,-8,1,-3,-1,-2
1606411598021318,3,3,-4,-19,-6,0,0,-1
1606411598030295,-2,-8,6,12,3,-4,-3,2
1606411598030295,-1,-2,-12,-37,4,0,-1,-2
1606411598045254,-4,3,1,60,-7,0,-1,-2
1606411598045254,-7,0,9,26,5,3,-2,-2
1606411598046253,3,-12,-6,-37,-6,-3,-4,4
1606411598046253,2,1,-2,-5,1,0,0,1
1606411598067199,-2,1,7,24,4,-1,0,0
1606411598067199,-6,2,-18,23,0,-2,1,-4
1606411598069194,-6,-6,0,0,0,-1,-1,3
1606411598069194,-12,-13,4,14,-1,2,0,-1
1606411598081174,-4,2,10,-18,-4,0,0,-3
1606411598081174,4,-1,-1,-2,-3,-1,-1,-2
1606411598090138,-8,-11,-6,-2,3,-1,-2,-1
1606411598090138,1,13,8,-13,-9,-4,1,-6
1606411598114071,13,2,-9,0,2,-2,0,3
1606411598114071,0,-1,0,-21,-2,-1,-3,0
1606411598115068,-6,-11,1,11,-2,-3,-2,0
1606411598115068,2,1,-3,-3,-2,-2,-1,2
1606411598127036,-5,2,-8,-29,0,2,1,-2
1606411598127036,4,0,3,6,-3,1,0,-2
1606411598129031,-8,-13,0,13,2,-1,-3,0
1606411598129031,0,-3,2,43,9,-3,-3,1
1606411598140998,0,1,5,-12,0,-3,-2,-1
1606411598140998,-1,-13,-25,-58,-3,-1,1,1
1606411598149975,0,-2,7,31,-2,-3,-2,2
1606411598149975,2,-9,-3,-11,0,0,0,2
1606411598164935,-3,1,12,-12,-1,-5,-2,1
1606411598164935,-9,1,-21,33,8,-1,-1,2
1606411598165932,3,-9,5,0,6,-3,-2,2
1606411598165932,3,0,-9,-43,-6,0,-2,1
1606411598186876,5,-5,12,54,3,-2,-3,-2
1606411598186876,1,-1,10,-28,-7,-3,-2,-1
1606411598188871,-4,-9,-1,9,4,-3,-5,1
1606411598188871,-2,-15,0,-5,-3,-1,1,-2
1606411598200839,-3,5,-15,-13,-1,-1,0,-2
1606411598200839,0,-4,3,-1,1,0,-4,-2
1606411598209815,-1,-8,-6,4,-8,-4,-3,-2
1606411598209815,2,2,1,6,1,-2,-2,-1
1606411598224775,-7,-6,-9,-22,-6,1,-1,-4
1606411598224775,1,2,-2,6,5,0,0,-1
1606411598226770,2,-1,19,-18,-1,-3,-2,0
1606411598226770,-7,-1,-18,-2,0,3,-2,-1
1606411598247713,-7,3,5,33,3,1,2,-1
1606411598247713,6,-2,0,-15,-8,-1,0,0
1606411598256731,-1,-6,-4,-11,-1,0,1,0
1606411598256731,0,0,6,19,-1,0,1,-4
1606411598260679,-4,-3,-5,-16,-5,1,0,-1
1606411598260679,7,7,0,-34,-5,-1,-1,-3
1606411598269656,-1,-4,17,28,13,-1,0,0
1606411598269656,2,-3,-15,-31,-17,-3,-3,3
1606411598285615,10,6,16,9,4,-1,-1,-1
1606411598285615,-4,-7,-2,-9,-2,1,-1,-2
1606411598286613,-3,-1,1,24,6,-3,-5,-2
1606411598286613,4,2,-14,-50,-7,-1,2,0
1606411598307555,4,2,3,-20,-4,-1,1,-2
1606411598307555,-3,-2,-26,19,2,-2,-3,0
1606411598308554,-5,-9,-13,24,-3,-3,-3,-2
1606411598308554,-1,3,6,22,3,-2,-2,-2
1606411598320519,-7,-6,5,-14,-5,1,-1,3
1606411598320519,0,7,8,7,-1,-1,0,-1
1606411598329495,-6,-5,-13,-31,1,0,0,-1
1606411598329495,-1,-3,11,64,5,0,0,1
1606411598344455,-2,0,-11,-7,0,2,2,-3
1606411598344455,-4,-9,11,37,-3,0,0,-1
1606411598346450,1,-4,0,-14,-1,-1,-3,1
1606411598346450,2,7,-1,-38,-2,-2,0,-3
1606411598367396,-5,-2,5,41,5,-1,-2,-2
1606411598367396,-1,-3,12,-53,-2,-4,-3,2
1606411598369389,0,-9,-18,4,-4,-2,1,-1
1606411598369389,-6,2,-7,-39,-3,-1,-2,1
1606411598380359,-6,-4,-3,1,2,1,0,0
1606411598380359,-11,-9,-1,4,-5,-1,-1,-4
1606411598390332,4,-4,1,-5,-1,-1,-1,-1
1606411598390332,-5,-2,3,4,1,-2,-4,1
1606411598412276,-1,-1,-11,-44,-5,1,-1,-3
1606411598412276,5,-3,15,24,3,-2,-3,2
1606411598414268,-5,1,-23,-2,2,-4,-1,0
1606411598414268,5,-2,-10,-3,-1,1,2,-3
1606411598427233,-4,4,11,42,5,0,1,0
1606411598427233,-3,-6,0,-12,2,-2,-2,0
1606411598429228,3,-5,11,6,1,-4,-3,0
1606411598429228,1,6,6,22,1,2,1,-3
1606411598441196,0,0,-14,-1,-2,0,-3,-4
1606411598441196,-1,-4,-9,7,1,0,-1,-1
1606411598450172,-3,0,5,-52,-4,-2,1,1
1606411598450172,0,-2,-7,32,3,0,-1,0
1606411598472118,6,9,12,6,4,1,0,-3
1606411598472118,-1,-8,-31,-17,-8,-4,-1,1
1606411598474112,3,-2,-1,-1,-3,0,2,-1
1606411598474112,-6,-5,-4,-7,-1,-1,-3,-1
1606411598487073,-4,2,1,-1,-1,-1,0,0
1606411598487073,1,-4,4,-24,-1,-1,-2,1
1606411598489068,0,-4,-39,2,-3,-1,-2,0
1606411598489068,-1,2,6,-40,-4,-1,2,-2
1606411598501036,1,0,-7,50,2,0,0,-1
1606411598501036,7,-2,6,-11,0,-2,-2,2
1606411598516996,0,-2,7,3,-2,0,0,0
1606411598516996,-1,5,8,43,1,-1,0,-2
1606411598524973,-4,-3,-29,-87,-11,-2,0,-1
1606411598524973,-5,-1,7,0,5,1,-1,-2
1606411598525971,9,0,27,51,3,-2,-1,0
1606411598525971,-3,0,-13,-10,5,2,1,-3
1606411598546916,5,1,13,3,-11,-2,-2,-1
1606411598546916,-4,-2,-7,-1,1,-2,-2,-2
1606411598548912,-4,-4,7,-8,3,-1,2,-5
1606411598548912,2,3,4,3,0,1,-1,4
1606411598560877,-2,-4,-12,-12,-4,-1,-1,-2
1606411598560877,0,-1,-1,-4,0,-4,-4,-1
1606411598569853,-5,0,-5,-18,-5,0,-1,-1
1606411598569853,1,3,12,25,3,-2,-3,-5
1606411598584813,4,-3,-9,6,0,1,1,1
1606411598584813,-2,-2,11,13,-1,-1,-1,3
1606411598586808,0,-4,2,-5,-1,1,-3,-1
1606411598586808,-19,-8,1,-17,-3,-1,1,-4
1606411598607751,-3,2,7,-3,0,-2,-2,-2
1606411598607751,-2,-3,13,15,-1,0,1,-1
1606411598608748,1,0,5,28,4,-4,-3,-2
1606411598608748,3,2,7,-1,-5,-1,-1,-3
1606411598630691,-1,-1,-2,-7,1,1,1,-2
1606411598630691,-5,-6,-2,20,0,-1,-2,1
1606411598631688,1,4,3,-19,4,-1,-1,-2
1606411598631688,2,0,-9,-26,-4,-1,2,-2
1606411598644654,-1,2,9,25,4,-1,-1,1
1606411598644654,2,-6,-10,-25,1,-2,-1,1
1606411598646650,-6,0,-1,0,-2,1,0,-1
1606411598646650,4,4,-19,-13,-4,-1,-1,-1
1606411598667593,-8,-3,-1,13,2,0,-1,-1
1606411598667593,3,-1,1,-6,2,-2,-1,1
1606411598668591,-1,-2,3,4,0,-3,0,1
1606411598668591,-1,3,-15,-33,-3,2,0,-2
1606411598689532,-1,-2,9,56,1,-1,0,0
1606411598689532,-2,-3,-2,4,0,-3,-4,1
1606411598691527,-4,-6,13,11,4,-3,-8,-3
1606411598691527,22,14,-14,-7,-5,1,15,0
1606411598704495,-5,1,-14,-7,2,-3,-8,-1
1606411598704495,-3,-5,9,5,0,0,1,-1
1606411598710478,-1,0,-5,14,-2,0,0,-1
1606411598710478,-2,0,6,-13,-1,-3,-4,0
1606411598727431,2,1,1,-32,-2,-1,2,-2
1606411598727431,-1,-5,1,27,-4,-2,-3,0
1606411598728429,2,-3,-12,-9,0,2,-1,-1
1606411598728429,-5,-3,-1,-12,1,0,-3,-2
1606411598749372,0,4,0,-14,-1,1,1,-2
1606411598749372,-1,-5,-12,-7,2,-3,-4,-1
1606411598751367,-1,0,6,-11,-7,-2,2,0
1606411598751367,-3,2,3,2,2,1,-1,-3
1606411598764332,-1,2,0,8,-5,0,-1,-2
1606411598764332,-3,-10,-13,-20,4,-4,-3,0
1606411598771314,-1,-2,1,-3,0,0,1,-1
1606411598771314,-4,3,-4,20,-4,-1,0,-4
1606411598787274,2,2,7,-7,-1,-3,1,0
1606411598787274,-1,-4,-19,-12,0,-1,-1,-4
1606411598789266,0,2,12,-6,0,0,2,-1
1606411598789266,-2,-3,-1,62,6,0,-6,0
1606411598810210,1,5,-3,-26,-1,4,0,1
1606411598810210,0,-6,-7,-16,-2,-2,-1,0
1606411598811207,-2,-3,-8,10,-2,-2,-2,-1
1606411598811207,-2,0,9,-16,-4,1,0,0
1606411598823175,-1,-4,-5,7,0,-3,-1,0
1606411598823175,0,-3,3,-4,-1,-2,-1,1
1606411598832152,0,5,-4,9,-1,0,0,-3
1606411598832152,-3,-2,-9,-23,-1,0,-3,-2
1606411598847112,0,-2,10,4,1,-1,-1,-2
1606411598847112,-1,-5,-7,6,-3,-2,0,0
1606411598849107,2,2,2,7,-1,-2,1,1
1606411598849107,-2,-1,5,-7,-5,-3,-12,-3
1606411598870050,-3,-1,-12,-26,1,1,10,-2
1606411598870050,2,-4,8,15,1,-3,-5,1
1606411598871047,-4,-5,-4,0,1,-2,-1,0
1606411598871047,-7,-1,4,8,0,-1,0,-4
1606411598883018,-3,-3,-14,-32,-8,-4,-26,-4
1606411598883018,2,4,27,63,10,4,21,5
1606411598891994,-1,-4,-1,-3,-7,0,3,-4
1606411598891994,0,1,-7,-1,-2,-4,-32,-4
1606411598906952,4,10,12,19,3,8,68,11
1606411598906952,-6,-4,-5,6,0,-3,-17,-6
1606411598908946,0,-1,-7,-52,-4,-2,-10,1
1606411598908946,1,-1,-5,33,2,0,3,-4
1606411598929890,1,-4,-8,-8,-4,-6,-16,-9
1606411598929890,1,-8,-19,-20,-3,0,-6,2
1606411598930887,-2,2,14,1,0,-1,14,-1
1606411598930887,6,-2,15,12,-4,1,14,1
1606411598943852,-1,-1,-8,-9,1,0,-13,-2
1606411598943852,-2,-10,1,-9,-2,1,-7,1
1606411598952829,-1,4,1,2,-1,-3,-14,-5
1606411598952829,-3,-1,-1,-4,2,0,16,5
1606411598966791,-5,6,6,0,-2,-5,-28,-1
1606411598966791,-3,-11,2,-4,2,4,17,1
1606411598968786,2,5,-4,4,1,4,41,3
1606411598968786,1,9,-3,-12,-5,-1,3,2
1606411598989730,-10,-4,24,46,4,3,7,-2
1606411598989730,-15,-15,-1,-17,-4,-5,-32,-3
1606411598991725,6,13,-11,-6,-2,1,9,-1
1606411598991725,-2,1,6,-4,0,0,-4,0
1606411599012668,2,-2,-6,-11,-3,1,-7,-1
1606411599012668,2,-6,-4,-1,-1,-5,-5,-1
1606411599013665,3,0,6,7,-2,-4,-6,-3
1606411599013665,-4,-3,3,0,-4,-2,-6,-2
1606411599027628,-7,0,-2,-9,1,6,11,-2
1606411599027628,4,0,2,-18,-2,-2,4,0
1606411599028626,-1,-2,-11,21,5,-2,-7,0
1606411599028626,1,-5,-4,-55,-4,-1,3,0
1606411599049570,-1,-1,-7,0,-1,-2,-3,1
1606411599049570,1,0,4,-1,-1,-4,6,0
1606411599051565,-3,-4,0,-12,-4,1,-9,-2
1606411599051565,-9,3,3,13,1,-1,-2,-2
1606411599063536,7,3,-4,1,0,-1,-1,-1
1606411599063536,-1,-4,-3,-15,-3,-2,1,-2
1606411599072513,-3,2,2,22,1,-2,-14,-3
1606411599072513,-1,7,-3,6,-1,0,0,1
1606411599088466,-1,4,0,-2,-3,-2,-10,-3
1606411599088466,2,-1,0,4,-2,-1,7,2
1606411599089463,-2,-4,0,13,4,1,-8,0
1606411599089463,2,2,2,-12,1,3,7,-2
1606411599109410,3,5,3,6,-1,-2,-5,-3
1606411599109410,-1,-5,-6,-6,0,-4,-17,-5
1606411599111405,-2,-2,14,3,-2,1,2,-1
1606411599111405,-16,-6,-21,-12,-3,-2,-12,-3
1606411599123373,2,3,3,16,4,-9,4,2
1606411599123373,-2,-2,-3,7,3,9,-1,0
1606411599132349,-5,0,8,-22,-4,-24,-4,0
1606411599132349,8,4,-4,0,-1,29,8,1
1606411599147311,-4,-6,-4,-4,-3,0,-2,-1
1606411599147311,-5,0,4,33,2,-5,-2,-1
1606411599149303,-3,-4,-10,6,4,-2,-2,-2
1606411599149303,0,-1,12,-7,0,-1,-1,1
1606411599169250,0,1,-38,-1,-2,-9,1,-1
1606411599169250,4,2,10,2,4,1,4,1
1606411599171245,2,0,-13,-6,-7,32,2,-2
1606411599171245,0,-1,1,1,0,-1,-5,-3
1606411599183212,2,-1,17,7,1,-18,17,2
1606411599183212,-1,0,-6,-13,0,39,-3,-1
1606411599192188,0,-3,-8,4,1,-9,1,0
1606411599192188,0,-1,8,20,-2,-3,-6,0
1606411599207148,-5,6,0,-36,-3,8,-12,-5
1606411599207148,1,-3,-7,-12,-4,-38,24,3
1606411599209144,2,3,4,-3,6,43,-12,-3
1606411599209144,0,-1,4,7,2,-3,12,-1
1606411599230090,5,4,-4,-24,-9,-11,-12,-3
1606411599230090,-3,-4,21,23,-1,-16,-10,2
1606411599231091,3,7,0,-2,4,-12,20,6
1606411599231091,0,-4,-3,2,0,18,-10,-3
1606411599243053,-5,2,5,-12,-2,9,7,-7
1606411599243053,1,-2,-8,-4,0,-3,56,9
1606411599252031,-2,-6,8,-8,-4,-24,-21,-1
1606411599252031,-1,8,-19,-17,-2,18,30,-2
1606411599266991,1,-2,11,12,-6,5,11,-1
1606411599266991,2,-4,-8,-16,-1,11,-5,-1
1606411599268984,-3,5,-12,-16,-3,-41,24,1
1606411599268984,1,-1,-12,22,0,25,3,-2
1606411599289930,-3,-6,-3,-5,14,14,-15,-3
1606411599289930,-2,-8,-3,-10,-3,-12,-17,-5
1606411599291925,1,-4,-25,-34,-5,16,2,-1
1606411599291925,0,6,36,54,-2,-63,-18,-2
1606411599302894,-1,-9,-27,-15,6,62,17,5
1606411599302894,-4,9,72,12,-4,-3,-27,-4
1606411599312866,9,0,-18,-20,-5,-2,-11,-2
1606411599312866,-1,14,-4,-22,-4,-7,-4,-4
1606411599326831,-3,-17,-4,10,-5,-40,-10,2
1606411599326831,2,9,-5,-5,10,29,4,1
1606411599333810,-4,-11,-1,49,-3,16,-11,-7
1606411599333810,4,14,-11,-19,3,-51,-9,-1
1606411599349767,-6,-4,7,-20,-7,8,9,2
1606411599349767,2,0,-9,4,3,9,16,6
1606411599351762,-2,6,-6,40,-4,-13,-8,-4
1606411599351762,1,-14,27,-10,2,8,-3,0
1606411599363733,1,1,-5,4,-1,-11,-18,-4
1606411599363733,-3,-17,-36,-9,-2,-15,-10,-3
1606411599372708,-4,3,31,-10,-3,0,-8,2
1606411599372708,1,18,24,8,4,23,6,-1
1606411599386669,-1,-3,-14,-35,-13,-4,-7,1
1606411599386669,-4,-24,-6,41,4,-18,-9,-3
1606411599393650,6,22,22,-5,5,6,8,2
1606411599393650,-4,-11,-36,-27,-7,8,-3,0
1606411599409608,0,1,7,20,0,-11,-6,1
1606411599409608,-3,1,-8,9,-2,-9,-3,-3
1606411599411603,-6,-2,16,0,-11,1,-5,-2
1606411599411603,-4,-6,-15,-55,-8,-33,-3,-1
1606411599423570,0,3,-11,29,4,47,7,-1
1606411599423570,-4,-11,26,-21,7,-14,-8,-1
1606411599439527,5,-2,-15,9,-18,-16,-4,-4
1606411599439527,-4,-1,8,-3,1,36,4,-2
1606411599446511,-6,-11,-3,0,-2,-49,0,-3
1606411599446511,5,1,-48,-7,-2,37,-4,0
1606411599453490,-2,20,16,-29,6,-2,2,-1
1606411599453490,0,-8,7,47,2,1,0,0
1606411599469448,-3,-3,-7,-17,-5,-17,-2,-1
1606411599469448,-9,-12,-1,-10,-6,-3,-9,-1
1606411599471444,-2,-6,-2,4,6,6,16,2
1606411599471444,2,2,0,30,-5,-33,-2,-2
1606411599483410,-8,-3,13,6,7,43,4,1
1606411599483410,3,5,4,-16,-6,-20,-5,-2
1606411599500365,0,-1,-15,0,2,14,-26,-1
1606411599500365,-4,-5,-3,3,1,-5,2,-5
1606411599506349,1,1,7,1,-1,-3,0,1
1606411599506349,19,-5,-9,-1,-4,-10,-5,2
1606411599513330,-6,-3,-8,-9,1,5,7,-6
1606411599513330,3,-2,3,4,1,8,-1,3
1606411599530285,-1,-4,2,0,2,-15,-4,1
1606411599530285,-2,0,-3,0,-5,2,-1,-3
1606411599531282,-2,-2,5,3,3,-6,1,-1
1606411599531282,6,2,1,3,2,9,-2,1
1606411599543250,9,2,-1,1,-1,-6,3,-1
1606411599543250,-7,-5,10,4,6,-4,-2,-1
1606411599552226,-2,1,5,2,-4,4,4,-1
1606411599552226,-6,3,-18,-8,3,0,3,0
1606411599566189,10,-7,1,11,-1,-2,-9,7
1606411599566189,-2,3,6,0,1,1,10,-4
1606411599573170,-2,6,-3,-7,-4,-5,-2,-9
1606411599573170,3,4,2,-7,-2,6,0,7
1606411599590125,0,-2,3,2,2,-4,-5,-1
1606411599590125,1,0,-4,-1,-1,0,3,2
1606411599591123,1,11,-5,1,1,1,10,-1
1606411599591123,-8,2,-2,4,-1,-3,-5,-5
1606411599612069,-2,-10,3,0,-1,-2,-2,-2
1606411599612069,-4,-21,-4,-2,-1,-3,-6,0
1606411599614063,-3,10,17,-4,-2,0,-1,-4
1606411599614063,-3,-7,-23,2,2,1,1,0
1606411599627029,-12,-14,3,0,1,-8,-2,1
1606411599627029,2,-5,-3,-1,-1,1,-4,-4
1606411599633010,-4,8,-14,3,-1,-1,2,2
1606411599633010,-1,3,17,-5,-2,3,0,-2
1606411599648970,-2,15,5,0,3,-2,0,0
1606411599648970,-2,2,-10,-1,0,-1,0,0
1606411599657950,-5,-3,-8,1,1,3,-1,-2
1606411599657950,4,1,-3,0,-5,-2,3,2
1606411599671908,-1,-6,-6,-5,1,2,13,3
1606411599671908,0,-1,4,-1,-1,-3,-10,-3
1606411599673903,1,0,9,0,0,-2,5,2
1606411599673903,-2,1,-22,-4,-2,-1,-9,-5
1606411599686866,6,-6,-1,4,0,-2,4,-2
1606411599686866,-3,6,-4,-2,-4,-3,0,-1
1606411599693851,-2,-4,0,-3,-1,0,-4,-4
1606411599693851,0,1,2,0,1,1,-1,0
1606411599709807,7,-7,-13,4,-3,-4,-11,0
1606411599709807,5,10,15,1,4,-1,-1,-2
1606411599711802,-6,-13,-15,2,-1,-1,-14,0
1606411599711802,1,13,8,-7,0,3,25,1
1606411599732745,-2,-3,-1,-4,-1,-3,-11,-1
1606411599732745,-4,-5,-6,-2,-3,-2,-4,-6
1606411599733743,9,-3,-4,0,-1,2,-3,2
1606411599733743,-5,-13,3,1,-1,1,-4,-2
1606411599746707,1,-1,0,-1,0,-2,2,-2
1606411599746707,-6,1,0,-6,-3,-2,-1,-1
1606411599754690,-1,4,11,1,-1,-3,2,0
1606411599754690,-1,-4,-6,0,0,-1,-3,-2
1606411599777624,-5,-2,1,-3,-1,-2,-1,-3
1606411599777624,-3,-4,-4,-1,2,-1,-2,-1
1606411599778622,0,-1,-6,-2,-3,1,6,-1
1606411599778622,1,-2,7,-3,-1,-2,-2,-1
1606411599792585,-4,-3,3,3,0,-3,-7,0
1606411599792585,5,4,-6,2,0,0,0,3
1606411599793582,-2,1,-1,-2,-1,1,2,0
1606411599793582,-8,-4,-2,0,-1,-4,-6,-3
1606411599805552,3,5,3,-5,0,2,-2,0
1606411599805552,-2,0,4,5,2,0,3,2
1606411599814526,-15,-8,-11,-5,-4,-3,-5,-5
1606411599814526,1,-6,4,2,0,2,3,4
1606411599829485,-2,-3,10,0,0,-1,-4,-3
1606411599829485,-1,-7,-4,-1,0,-1,-1,1
1606411599831480,-1,19,1,2,3,1,1,-5
1606411599831480,10,0,1,2,-5,-1,-4,0
1606411599852425,-4,-2,1,-2,-1,-1,9,-1
1606411599852425,3,-4,-1,-4,-4,-2,-2,-1
1606411599853422,2,-4,-6,-2,-2,-1,-1,-1
1606411599853422,-2,2,3,-1,1,-1,-3,-4
1606411599866388,11,3,-5,0,1,0,1,3
1606411599866388,-11,-2,2,1,1,0,-1,0
1606411599875362,2,6,-3,0,0,-3,1,0
1606411599875362,1,5,3,-2,-2,-1,-2,-1
1606411599889325,-6,-6,-4,-2,-1,-2,0,-2
1606411599889325,1,0,1,2,-4,-2,-3,1
1606411599891320,0,0,4,-1,2,1,-1,1
1606411599891320,0,2,0,-1,0,-1,0,-1
1606411599912267,-9,-1,7,-1,1,-1,-2,0
1606411599912267,7,-5,-5,-2,1,1,0,0
1606411599914258,-1,2,8,0,-1,-1,3,1
1606411599914258,3,-2,-1,0,-2,-1,0,-1
1606411599926229,-4,-2,2,1,-2,-2,-6,-2
1606411599926229,2,2,-3,-2,0,1,-1,4
1606411599935202,5,-10,-6,-2,-3,-1,0,-1
1606411599935202,-10,-6,2,-1,1,-2,-2,-3
1606411599950162,0,0,-7,-2,-1,-2,1,-2
1606411599950162,4,0,5,0,-1,-3,-5,0
1606411599951160,-2,-4,-6,0,1,-1,-2,-1
1606411599951160,1,4,-1,-3,0,0,1,-2
1606411599972106,-1,-6,-11,-1,-3,0,-4,0
1606411599972106,-5,-6,-4,-1,0,-2,2,-3
1606411599974099,1,5,2,1,-1,-2,-1,-2
1606411599974099,0,3,10,1,0,0,0,-2
1606411599987066,1,-4,-2,-4,0,-1,0,4
1606411599987066,10,-2,4,1,1,0,0,0
1606411599993050,6,4,3,-2,0,0,2,1
1606411599993050,-4,-3,0,-2,1,-1,-3,-1
1606411600010004,-5,-2,-7,1,3,-2,-4,-2
1606411600010004,3,1,6,-4,-3,0,-1,0
1606411600011003,-6,-7,-6,-1,0,0,-3,2
1606411600011003,-2,-6,-6,2,1,0,0,1
1606411600031946,2,0,5,-2,-3,0,-1,-2
1606411600031946,-5,-4,-7,1,-3,0,-2,-2
1606411600033944,-1,-3,-4,-3,0,0,-6,-3
1606411600033944,-3,3,-1,-1,-3,0,13,1
1606411600046905,-3,-2,0,0,2,-2,-1,0
1606411600046905,-1,0,-5,-2,1,0,-1,-1
1606411600053886,-2,-2,-1,-1,-2,-1,-2,0
1606411600053886,0,3,-12,-2,-1,1,-4,-3
1606411600069845,2,-3,-7,-1,-2,0,-1,0
1606411600069845,-7,1,7,0,-1,0,1,0
1606411600071841,2,5,-4,-3,1,1,2,-2
1606411600071841,0,4,0,2,-2,-2,0,-2
1606411600092782,-2,-5,-2,0,-1,0,-1,0
1606411600092782,5,2,-5,0,-1,-1,-1,-2
1606411600093780,-1,1,3,0,0,1,8,-4
1606411600093780,-1,2,-1,-1,-1,1,1,-1
1606411600105750,4,-3,0,-1,-2,-2,-1,0
1606411600105750,-3,-1,0,-3,-1,-3,-4,-2
1606411600114726,0,1,-1,0,-2,0,-2,0
1606411600114726,1,-1,3,2,1,0,-2,-2
1606411600129685,-2,0,-3,-3,-1,-3,-1,1
1606411600129685,-4,-3,-1,0,0,0,2,-2
1606411600131688,0,-2,0,-1,0,0,0,1
1606411600131688,0,-2,-18,-5,-1,1,-3,0
1606411600152625,-2,-2,1,0,-2,-1,-2,-2
1606411600152625,-5,-2,1,4,-2,-16,-1,-3
1606411600154618,1,0,0,-2,4,20,1,0
1606411600154618,1,0,3,5,1,4,0,2
1606411600165589,1,0,-1,-7,-6,-1,-2,1
1606411600165589,-2,1,-9,2,3,-30,-5,-2
1606411600174564,1,2,8,0,-1,11,7,0
1606411600174564,-2,-5,2,-4,-7,22,-3,-1
1606411600189524,1,-1,-11,2,3,-26,-3,2
1606411600189524,-2,4,5,6,0,32,-3,1
1606411600191519,-1,2,1,8,-1,-13,-3,-2
1606411600191519,0,0,-3,-1,2,8,4,0
1606411600212462,-2,-12,-11,-11,-7,-17,-4,-1
1606411600212462,-2,-6,6,-3,-15,-18,-7,-5
1606411600213459,1,5,-6,-20,4,26,5,0
1606411600213459,-3,-3,26,79,-4,-7,-3,0
1606411600226428,-3,-5,-14,-16,-11,-4,-3,0
1606411600226428,-1,1,-27,-47,19,-12,6,0
1606411600242382,-4,-4,8,-1,-16,3,-2,-1
1606411600242382,0,-4,-8,51,10,-11,-5,-1
1606411600249362,-2,1,8,-43,-2,-20,2,1
1606411600249362,-2,-3,-3,-13,-11,38,5,-1
1606411600251357,-2,-3,-17,-14,-16,-28,-3,-2
1606411600251357,-1,11,13,31,19,2,0,0
1606411600272301,1,-4,5,-8,-5,14,-5,-2
1606411600272301,0,-12,0,9,-5,-1,0,2
1606411600274296,-1,5,-2,-18,8,-10,-3,-3
1606411600274296,-2,0,5,23,2,-15,-2,-2
1606411600286266,0,6,-1,-28,0,-12,-4,-3
1606411600286266,-2,5,10,36,7,32,10,1
1606411600295240,-1,-8,-3,-24,-9,-14,-7,1
1606411600295240,-1,5,0,-31,-11,8,-5,-4
1606411600310200,2,-10,-6,5,6,10,1,1
1606411600310200,-1,-1,-15,8,7,-11,-5,-1
1606411600311198,-3,-4,6,4,-4,-9,0,-2
1606411600311198,1,9,13,-33,6,4,5,-1
1606411600333141,-2,-1,16,82,15,-9,-6,-3
1606411600333141,0,5,20,-24,-7,9,2,0
1606411600334145,-2,-4,-24,0,9,7,0,1
1606411600334145,0,1,22,-33,-5,-16,-3,0
1606411600346107,0,-10,-11,-38,-11,19,4,1
1606411600346107,0,3,-5,35,11,-18,-5,-3
1606411600355080,-2,-1,4,11,4,13,2,-1
1606411600355080,0,-2,-6,-51,-9,-22,-4,-1
1606411600369045,-1,-2,-3,20,-3,26,4,1
1606411600369045,-2,-6,2,5,2,-6,1,-1
1606411600376025,0,5,-22,-4,-2,0,-1,-3
1606411600376025,0,1,-2,10,0,-13,-4,-1
1606411600391983,0,1,-3,-18,-2,0,4,0
1606411600391983,0,-1,2,-9,-9,3,1,1
1606411600393984,-2,-3,-3,26,5,-7,-4,-3
1606411600393984,0,-1,-8,-28,-5,10,-3,-2
1606411600405947,0,1,4,8,5,-16,-3,-1
1606411600405947,-5,1,-4,-21,-8,-7,-2,-1
1606411600414923,4,3,12,-5,9,8,0,-1
1606411600414923,-4,-10,-17,-17,-11,7,1,-1
1606411600428885,0,0,9,16,8,-17,-6,-2
1606411600428885,-2,-2,-2,13,2,36,3,-2
1606411600435867,0,-4,7,-14,-18,-41,-2,2
1606411600435867,3,5,-9,18,21,18,5,1
1606411600452823,-8,-7,4,22,9,13,0,-2
1606411600452823,0,-6,-13,-41,-7,-31,-7,1
1606411600453820,9,8,-8,14,2,8,-1,-2
1606411600453820,0,0,-23,-26,-13,10,3,-2
1606411600465787,2,-4,28,38,2,-5,-4,2
1606411600465787,1,-1,-31,-7,3,-5,1,-2
1606411600474763,-1,6,27,29,4,14,0,-2
1606411600474763,-4,-1,-9,-46,-7,-17,-4,-3
1606411600488725,-7,-1,-10,-32,3,24,0,0
1606411600488725,4,-4,11,9,-10,-5,-2,1
1606411600495705,-5,-7,-4,12,1,3,1,0
1606411600495705,-2,8,5,37,9,4,6,0
1606411600512660,-3,-4,-7,-62,-10,-7,-4,0
1606411600512660,0,1,9,8,9,8,-3,1
1606411600513662,-4,-8,-3,-11,-6,-34,-4,-1
1606411600513662,0,4,6,-3,3,5,16,1
1606411600534603,1,-3,-19,33,-4,31,7,1
1606411600534603,-2,-3,3,-15,-8,-9,-4,-2
1606411600536596,0,1,7,4,0,-6,-2,-2
1606411600536596,-1,0,-9,2,-3,-5,-6,-2
1606411600549560,1,3,10,-5,0,-2,5,0
1606411600549560,1,1,9,15,11,9,2,0
1606411600555547,-5,-1,3,32,-12,-2,-1,-2
1606411600555547,-1,1,-7,-1,-2,9,-4,0
1606411600572501,0,-7,12,17,9,-39,-4,-2
1606411600572501,2,0,-14,-9,-3,33,11,1
1606411600578483,-4,3,1,9,-3,13,-3,-1
1606411600578483,-3,-2,13,-9,-9,-8,-1,0
1606411600594440,-1,-2,-4,8,5,-6,-3,2
1606411600594440,-6,-16,-3,-5,5,-11,-3,-2
1606411600596435,3,4,-2,-17,4,-2,5,-2
1606411600596435,1,2,-12,-6,-6,8,-4,-4
1606411600609400,-1,-3,6,33,-3,0,-5,1
1606411600609400,-4,-2,0,0,-1,-12,-3,-4
1606411600616384,-2,0,-5,-20,-2,11,6,0
1606411600616384,1,3,5,22,1,-15,-7,-6
1606411600632341,-1,-4,0,-34,1,17,0,-1
1606411600632341,-3,-4,4,33,-2,-7,-7,-3
1606411600634337,2,2,-6,-32,-1,-2,-3,-2
1606411600634337,7,2,-10,-9,0,-1,1,-1
1606411600655280,-3,3,7,-4,-4,-5,-11,-2
1606411600655280,-1,-4,-1,-3,-2,-10,-1,1
1606411600657272,-1,1,-1,24,4,0,5,0
1606411600657272,0,4,-10,-27,1,19,4,-2
1606411600669246,-10,2,-7,11,-10,1,-4,-3
1606411600669246,1,-14,-11,-24,-3,-11,-6,2
1606411600676222,-7,2,1,-5,2,-4,-4,-3
1606411600676222,-1,8,8,-1,-5,3,3,-1
1606411600692181,-7,-10,-8,15,4,-1,-2,1
1606411600692181,3,3,8,5,0,-1,3,-4
1606411600694173,-1,-1,2,8,8,6,0,1
1606411600694173,-1,4,-3,20,-13,-6,-1,-1
1606411600715120,1,-13,-4,-34,1,-1,2,1
1606411600715120,-4,-6,10,37,1,-9,-9,0
1606411600716126,3,2,-13,-21,0,5,3,0
1606411600716126,0,6,0,-8,-4,-2,-2,-2
1606411600728085,-6,-7,0,38,9,-6,-4,-3
1606411600728085,8,10,11,-21,-9,-1,3,3
1606411600737061,-3,-5,-14,-2,1,-2,-10,-4
1606411600737061,-2,5,10,13,0,1,9,1
1606411600752022,10,-13,-8,-33,-7,-7,-4,0
1606411600752022,4,5,-5,2,1,-3,1,-1
1606411600754016,-3,2,6,-4,0,3,-1,-4
1606411600754016,-4,2,-5,-22,-6,-3,-6,-1
1606411600774961,-1,-4,2,5,2,0,1,1
1606411600774961,-3,-10,4,12,2,-1,-2,1
1606411600776961,8,15,-3,-18,-2,0,1,-3
1606411600776961,0,7,0,1,6,0,-1,-1
1606411600788921,4,-5,11,16,4,-2,1,1
1606411600788921,-2,-4,-19,-33,-8,-2,-1,-1
1606411600797899,-12,2,10,13,1,0,-1,-1
1606411600797899,5,-1,-3,0,-4,2,0,-3
1606411600812857,1,-1,-5,-4,-2,-3,-5,2
1606411600812857,-4,0,5,10,4,-1,-1,-2
1606411600813855,11,2,0,3,-4,1,2,2
1606411600813855,-5,5,-1,2,2,0,-5,-3
1606411600834797,0,-6,-9,-33,-5,-3,0,1
1606411600834797,-6,-8,4,22,4,-3,-3,-1
1606411600836792,18,4,-18,-29,-8,-1,3,-1
1606411600836792,-5,-1,11,36,7,1,-4,-3
1606411600848760,-2,1,-8,-40,-5,-1,1,-1
1606411600848760,3,-6,13,73,8,-3,-3,-1
1606411600857736,-10,-6,-7,10,0,1,-2,-3
1606411600857736,0,6,3,-5,-3,0,0,-2
1606411600872696,-5,-11,-1,41,7,0,-3,-3
1606411600872696,-8,5,-4,-24,-2,1,3,0
1606411600873693,-7,1,6,-3,-3,-2,-2,-3
1606411600873693,2,1,-5,45,-2,0,0,-3
1606411600894638,-7,-10,0,8,2,-1,0,-1
1606411600894638,-4,-1,-9,-18,-4,2,-7,-4
1606411600896632,13,11,20,9,1,2,0,0
1606411600896632,-10,-6,-41,-43,-5,-3,-3,-3
1606411600908600,3,-2,12,1,1,0,-2,1
1606411600908600,-3,4,-15,-17,-3,1,1,-6
1606411600917576,-2,3,3,-4,0,-1,-3,-3
1606411600917576,-1,2,17,-1,1,5,6,-1
1606411600932537,6,1,-5,36,1,-2,1,1
1606411600932537,-6,4,0,-62,-9,-2,-3,-3
1606411600933534,-6,-2,3,40,-1,1,5,-3
1606411600933534,-2,2,7,-26,-6,-2,-8,-2
1606411600954478,-1,-7,-13,-24,-3,-3,3,7
1606411600954478,-15,-3,-12,-2,-4,0,4,-6
1606411600956472,-3,5,21,20,5,3,1,0
1606411600956472,-4,10,-2,-13,-4,-5,-4,0
1606411600968440,-1,2,0,-15,-3,0,-2,-3
1606411600968440,7,17,6,15,-1,-1,0,-2
1606411600977416,-2,-6,-4,-15,-1,4,0,-2
1606411600977416,2,-7,-6,0,-2,0,1,2
1606411600992380,-4,2,-2,-13,-1,-1,-3,-1
1606411600992380,6,14,-3,37,-2,-4,0,-2
1606411600994371,-6,-13,-16,-8,-5,-2,-3,-2
1606411600994371,5,-3,17,-9,-3,-3,-2,2
1606411601014320,-2,2,-2,-17,-2,-1,0,-3
1606411601014320,7,4,0,5,1,3,0,0
1606411601016312,-3,3,-6,-14,-6,-1,-2,0
1606411601016312,-6,-12,-3,8,6,-2,-2,1
1606411601028283,0,4,5,28,0,-3,0,-3
1606411601028283,-1,-6,2,-65,-5,4,4,1
1606411601037256,-4,-7,1,38,3,0,0,-2
1606411601037256,-4,-19,-4,-30,1,-2,2,0
1606411601053214,5,10,3,35,1,1,-6,-5
1606411601053214,-3,-8,19,-4,-1,4,10,0
1606411601054211,-1,-6,-6,1,1,3,-2,1
1606411601054211,-4,-32,-71,-14,-7,-6,-5,1
1606411601075155,0,19,87,15,5,4,2,-2
1606411601075155,1,2,-20,-1,-3,-2,-3,-1
1606411601076153,0,3,14,-12,0,-2,2,3
1606411601076153,6,-9,-7,2,2,-3,-3,2
1606411601088120,-3,-8,-10,-27,-8,-2,-1,-2
1606411601088120,-4,7,-2,15,-3,0,-1,-1
1606411601097098,-5,-1,8,2,-2,-1,1,-2
1606411601097098,-3,0,13,-8,1,-3,-6,1
1606411601112058,2,0,-26,4,-2,-1,1,-1
1606411601112058,1,-8,9,-1,3,5,3,1
1606411601114052,-1,10,-1,-16,-2,-2,-3,-1
1606411601114052,-1,-10,-16,-10,-5,-4,0,1
1606411601134998,1,6,4,-5,3,2,0,-2
1606411601134998,-2,6,-22,-2,2,-1,-4,-4
1606411601135996,-9,-7,-16,8,0,0,-2,-1
1606411601135996,-3,-9,35,11,7,-2,-1,2
1606411601148958,2,10,-41,-47,-10,-1,4,-6
1606411601148958,4,6,1,-15,-3,0,-1,-3
1606411601157940,1,0,-4,35,3,1,-2,3
1606411601157940,-6,-11,30,22,4,-3,-5,-1
1606411601171899,-7,0,-10,-16,-6,-1,2,-4
1606411601171899,-1,-5,-28,-12,-4,-1,1,-1
1606411601173894,3,8,6,-15,-4,-3,1,0
1606411601173894,8,-2,6,-23,-4,-3,-3,2
1606411601193839,-11,-11,-29,20,4,4,4,-3
1606411601193839,7,7,6,-15,-4,-1,-2,-2
1606411601202816,-2,-9,10,35,3,-1,-3,-2
1606411601202816,-9,-7,7,3,5,-4,-3,-1
1606411601208799,2,5,-15,-44,-7,-1,0,1
1606411601208799,-8,-3,20,71,6,3,1,-4
1606411601217774,8,-8,-10,-53,-4,-1,-2,1
1606411601217774,5,5,4,34,1,-1,-3,-7
1606411601232737,0,-4,-13,-2,-1,-1,-2,3
1606411601232737,-13,7,10,6,-4,-2,-1,-4
1606411601233740,-3,-3,-1,-14,0,-1,-2,1
1606411601233740,-2,-3,-9,21,2,1,2,1
1606411601255672,18,-2,4,19,5,-1,0,0
1606411601255672,7,11,5,-39,-5,-1,-1,-3
1606411601256670,1,-2,-2,21,-8,-1,0,-4
1606411601256670,-1,-2,-18,-44,0,-1,-2,0
1606411601268640,-9,-1,-1,16,0,-2,0,1
1606411601268640,3,-3,4,5,0,-2,-2,4
1606411601277616,-1,2,-8,-28,-1,-2,2,-1
1606411601277616,1,7,9,5,-2,2,-1,0
1606411601292576,-8,-14,12,14,-4,-2,-3,2
1606411601292576,-2,-1,0,16,3,-1,0,-3
1606411601293573,-1,7,-8,-34,-5,0,2,-3
1606411601293573,-1,-3,12,64,4,2,0,0
1606411601314515,2,1,6,-9,2,-4,-4,1
1606411601314515,-2,1,7,-19,-2,0,-1,-3
1606411601316510,9,3,-14,8,0,1,1,-1
1606411601316510,-5,8,11,24,3,3,3,-1
1606411601328480,1,-15,2,-35,-3,-1,-5,2
1606411601328480,-4,-4,1,4,1,-4,-2,0
1606411601337455,-1,9,8,12,3,2,-1,0
1606411601337455,-5,-1,-6,2,-2,0,2,0
1606411601351419,-8,-13,11,19,2,-5,-2,-1
1606411601351419,-1,-2,11,36,2,-2,-5,2
1606411601358398,-5,2,-9,-60,-7,2,14,0
1606411601358398,1,7,-13,25,-2,1,-2,-2
1606411601374355,13,-12,-2,6,8,-3,-4,5
1606411601374355,-2,-3,8,-5,-7,-4,-5,-3
1606411601381336,-6,3,-8,3,0,2,-4,-5
1606411601381336,2,5,2,-24,-2,-1,0,0
1606411601388317,-5,-11,-15,-10,-9,-3,-2,0
1606411601388317,1,-5,-11,-6,2,1,1,1
1606411601397294,7,5,12,-2,2,0,-4,-3
1606411601397294,-5,0,-8,-27,-9,-3,1,-2
1606411601411260,-1,-7,10,-55,-3,-3,-4,1
1606411601411260,2,4,11,57,1,1,0,0
1606411601418238,-4,2,4,-4,2,2,-1,-3
1606411601418238,1,1,-1,-24,-5,-2,-1,1
1606411601443171,-7,-10,-6,21,1,-3,-2,-3
1606411601443171,-1,-4,-13,-55,-6,0,3,0
1606411601444168,-4,2,8,36,7,-1,-2,-2
1606411601444168,2,-2,2,-5,-2,0,-2,0
1606411601448161,1,-12,-5,25,3,-1,-2,4
1606411601448161,-5,-3,-8,-36,0,0,-2,-4
1606411601457138,-1,-1,0,35,-11,-2,-3,-4
1606411601457138,1,5,-5,-29,1,-1,0,0
1606411601473095,-15,-9,6,36,10,0,1,0
1606411601473095,-2,-2,-13,-6,-3,-3,-1,1
1606411601478079,5,6,-6,-10,2,1,2,-1
1606411601478079,-2,0,5,-17,1,-2,-3,0
1606411601495034,5,-5,-2,27,1,1,-3,-1
1606411601495034,1,3,6,7,3,3,1,-3
1606411601496031,-3,-5,-9,-18,-4,-3,0,0
1606411601496031,9,2,-4,-2,-6,-2,1,4
1606411601516973,4,-4,-3,-6,2,-4,-3,2
1606411601516973,0,-4,-6,7,0,-4,-2,1
1606411601518969,1,2,0,-35,-5,-3,0,-2
1606411601518969,-3,-5,3,88,13,1,-4,2
1606411601531936,3,1,27,-12,8,0,-1,-1
1606411601531936,1,-7,-7,-55,-12,-4,-1,3
1606411601537918,-8,-1,-8,-27,-4,2,-1,2
1606411601537918,3,-7,-6,48,11,1,1,-2
1606411601554872,3,-5,9,-57,-21,-6,-5,1
1606411601554872,-2,-5,-2,33,6,-2,-2,-1
1606411601556868,0,-5,-11,-47,-4,-4,-3,1
1606411601556868,3,-4,6,7,8,-3,-3,-1
1606411601577813,0,-5,-17,-10,-2,-4,-2,-2
1606411601577813,0,-2,-5,-2,-2,-4,-3,-1
1606411601578809,-9,2,-6,7,-2,-4,-2,-2
1606411601578809,11,-15,-4,-16,-4,-3,-3,3
1606411601591774,-3,-7,-7,21,0,-2,-3,1
1606411601591774,-2,-1,1,-23,5,1,1,-2
1606411601598758,1,1,18,97,5,1,-4,-3
1606411601598758,-11,-5,-6,-30,-6,-2,15,1
1606411601614714,-3,-5,-13,1,-1,-2,-4,-1
1606411601614714,3,7,4,22,0,2,9,-1
1606411601616708,-3,-1,-5,-35,-1,0,-3,-3
1606411601616708,1,-1,2,-15,1,-1,-7,-2
1606411601637653,0,-1,-1,14,-8,-3,-4,0
1606411601637653,-14,-5,0,3,4,1,-1,-1
1606411601638654,8,4,12,16,-4,1,1,-2
1606411601638654,1,5,-13,-27,-5,-5,-4,0
1606411601650618,-7,2,8,39,12,4,2,2
1606411601650618,8,-2,8,31,-4,-1,-2,-1
1606411601659595,-1,-1,2,7,2,-2,5,-1
1606411601659595,-8,-14,-9,-34,-2,-2,-6,2
1606411601674553,14,18,-6,7,1,-2,-9,-11
1606411601674553,-1,2,6,27,2,0,10,4
1606411601676547,1,-11,-15,-24,-1,1,-5,4
1606411601676547,-12,-11,-2,2,-5,-1,-5,-3
1606411601697492,-2,-3,7,-23,0,-1,5,-2
1606411601697492,-1,3,2,18,-2,-2,-7,-4
1606411601698489,-1,-1,5,-21,-5,-3,-2,1
1606411601698489,-1,1,-15,8,4,-2,-1,1
1606411601719435,-6,-1,20,-11,-2,-1,-1,-3
1606411601719435,2,0,-7,8,-1,0,-1,-1
1606411601721427,2,15,-4,18,0,-1,-2,-3
1606411601721427,-5,-13,6,-24,-5,-1,-4,1
1606411601734392,4,-1,-8,24,0,0,4,1
1606411601734392,1,2,6,31,3,0,-3,0
1606411601736387,-12,-8,-3,-17,-2,-2,0,-4
1606411601736387,-4,-9,-4,-13,-2,-3,-2,-1
1606411601757331,2,1,2,7,1,-1,5,0
1606411601757331,-3,0,-13,-21,-3,-1,-2,-1
1606411601759326,4,-4,8,15,3,2,0,0
1606411601759326,2,-6,2,2,-1,-2,-3,-5
1606411601771294,-5,1,-5,-15,-3,0,-9,-5
1606411601771294,0,9,1,3,-1,1,7,2
1606411601780270,-9,-11,-8,-8,3,-1,-4,4
1606411601780270,-6,4,17,0,-1,-1,0,-3
1606411601795233,-7,-6,-13,-12,0,-3,2,-1
1606411601795233,-3,-2,-9,-19,-4,2,-4,-4
1606411601796227,-4,-3,6,21,0,-3,-1,-3
1606411601796227,-1,-4,1,-7,5,3,2,2
1606411601817171,0,-1,-2,16,-2,-3,-1,0
1606411601817171,2,-7,-6,-59,-3,-1,-2,-1
1606411601819166,-7,17,15,61,3,2,7,-1
1606411601819166,5,-1,-21,-19,2,-3,-6,1
1606411601839116,8,-3,5,5,0,0,3,-4
1606411601839116,-5,3,-3,18,-3,-2,-3,-2
1606411601840112,6,0,-3,-14,-2,-2,-1,-1
1606411601840112,0,-2,14,12,-2,-1,-1,1
1606411601854072,2,1,-11,-8,-1,1,4,1
1606411601854072,0,0,-2,-13,1,-2,-1,-4
1606411601855070,10,5,3,-3,-4,-2,-12,-3
1606411601855070,-3,-8,-11,4,3,2,14,2
1606411601877011,-4,0,9,2,1,-2,-4,0
1606411601877011,2,1,-9,-72,-11,-4,-3,0
1606411601877011,1,-2,-3,27,0,3,1,-1
1606411601877011,8,-3,4,25,5,-3,-6,1
1606411601899950,6,6,-4,2,0,-2,0,-2
1606411601899950,-8,-5,10,1,-3,2,-1,-1
1606411601900948,-2,-4,-15,-7,1,1,0,-1
1606411601900948,1,3,24,-7,-10,-6,-4,-3
1606411601913913,-4,8,2,-14,1,-8,2,-1
1606411601913913,2,6,-14,15,4,11,1,-4
1606411601914910,-1,0,-10,6,1,0,2,2
1606411601914910,-2,-5,7,-36,7,2,-6,-1
1606411601936853,1,2,2,35,-10,-2,1,-3
1606411601936853,-1,5,3,24,8,0,0,-2
1606411601937852,-4,1,29,-25,-2,-2,0,0
1606411601937852,-10,-15,-34,1,-2,-3,-3,2
1606411601958795,-3,3,-3,-14,2,3,7,-1
1606411601958795,0,7,6,18,2,1,-2,-1
1606411601959794,-3,-8,-3,-12,0,4,2,-3
1606411601959794,1,-3,7,8,-2,-5,-6,-1
1606411601973757,-2,2,-4,-8,-4,1,-2,-2
1606411601973757,1,-1,7,14,-1,4,2,-1
